Data from 42g_HRC06701__17__504.txt Node

Date: Thu Apr 18 02:42:20 CDT 2024
User: Estudiantes 2
Spectrometer: HR+C0670
Trigger mode: 4
Integration Time (sec): 1.000000E0
Scans to average: 1
Electric dark correction enabled: true
Nonlinearity correction enabled: false
Boxcar width: 0
XAxis mode: Wavelengths
Number of Pixels in Spectrum: 2048
>>>>>Begin Spectral Data<<<<<
407.81	-143.25
407.921	-143.25
408.032	-143.25
408.143	-150.25
408.254	-128.25
408.365	58.75
408.476	279.75
408.587	-48.25
408.699	29.75
408.81	-39.25
408.921	-43.25
409.032	4.75
409.143	20.75
409.254	36.75
409.365	99.75
409.476	-53.25
409.587	-16.25
409.698	91.75
409.809	117.75
409.92	-77.25
410.031	-41.25
410.142	89.75
410.253	36.75
410.364	15.75
410.475	332.75
410.585	1640.75
410.696	1833.75
410.807	1883.75
410.918	1821.75
411.029	1822.75
411.14	1858.75
411.251	1869.75
411.362	1887.75
411.472	1913.75
411.583	1923.75
411.694	1930.75
411.805	1876.75
411.916	1959.75
412.026	1922.75
412.137	1974.75
412.248	1934.75
412.359	1823.75
412.47	1754.75
412.58	1783.75
412.691	1920.75
412.802	1891.75
412.912	1800.75
413.023	1818.75
413.134	1862.75
413.245	1915.75
413.355	1848.75
413.466	1802.75
413.577	1770.75
413.687	1938.75
413.798	1756.75
413.909	1884.75
414.019	1865.75
414.13	1885.75
414.24	1835.75
414.351	1934.75
414.462	2169.75
414.572	1938.75
414.683	1917.75
414.793	1953.75
414.904	2216.75
415.014	1852.75
415.125	1833.75
415.235	1878.75
415.346	2033.75
415.456	2042.75
415.567	1919.75
415.677	1896.75
415.788	1937.75
415.898	1925.75
416.009	1865.75
416.119	1955.75
416.23	1895.75
416.34	1844.75
416.45	1844.75
416.561	2769.75
416.671	1989.75
416.782	1767.75
416.892	1920.75
417.002	2013.75
417.113	2050.75
417.223	1983.75
417.333	2039.75
417.444	1881.75
417.554	1961.75
417.664	2036.75
417.775	1904.75
417.885	1991.75
417.995	2074.75
418.106	2233.75
418.216	2110.75
418.326	2179.75
418.436	2144.75
418.547	2150.75
418.657	2160.75
418.767	2376.75
418.877	2233.75
418.987	2169.75
419.098	2288.75
419.208	2214.75
419.318	2244.75
419.428	2308.75
419.538	2221.75
419.648	2247.75
419.759	2200.75
419.869	2322.75
419.979	2161.75
420.089	2207.75
420.199	2190.75
420.309	2238.75
420.419	2324.75
420.529	2281.75
420.639	2766.75
420.749	2284.75
420.859	2318.75
420.969	2353.75
421.079	2587.75
421.189	2307.75
421.299	2394.75
421.409	2297.75
421.519	2350.75
421.629	2509.75
421.739	2333.75
421.849	2368.75
421.959	2332.75
422.069	2429.75
422.179	2406.75
422.289	2459.75
422.399	2565.75
422.509	2622.75
422.619	6385.75
422.729	2860.75
422.838	2457.75
422.948	2601.75
423.058	2637.75
423.168	2593.75
423.278	2741.75
423.388	2714.75
423.498	2735.75
423.607	2747.75
423.717	3060.75
423.827	3005.75
423.937	2836.75
424.046	2887.75
424.156	3050.75
424.266	2822.75
424.376	3087.75
424.485	3072.75
424.595	2828.75
424.705	2809.75
424.815	2921.75
424.924	3275.75
425.034	2963.75
425.144	2809.75
425.253	2948.75
425.363	2914.75
425.473	2945.75
425.582	2830.75
425.692	2832.75
425.801	2773.75
425.911	3121.75
426.021	2978.75
426.13	3049.75
426.24	3183.75
426.349	3063.75
426.459	2992.75
426.568	2971.75
426.678	3188.75
426.787	3083.75
426.897	3019.75
427.006	3104.75
427.116	3073.75
427.225	3056.75
427.335	3170.75
427.444	3085.75
427.554	3115.75
427.663	3227.75
427.773	3136.75
427.882	3229.75
427.992	3180.75
428.101	3260.75
428.21	3128.75
428.32	3196.75
428.429	3215.75
428.539	3520.75
428.648	3188.75
428.757	3291.75
428.867	3276.75
428.976	3480.75
429.085	3414.75
429.195	3327.75
429.304	3293.75
429.413	3387.75
429.523	3578.75
429.632	3360.75
429.741	3415.75
429.85	3423.75
429.96	3483.75
430.069	3432.75
430.178	3510.75
430.287	3795.75
430.397	3539.75
430.506	3458.75
430.615	3497.75
430.724	3590.75
430.833	3611.75
430.943	3650.75
431.052	3592.75
431.161	3633.75
431.27	3808.75
431.379	3709.75
431.488	3983.75
431.597	4019.75
431.706	3953.75
431.816	3981.75
431.925	3894.75
432.034	3845.75
432.143	3972.75
432.252	3952.75
432.361	3915.75
432.47	3875.75
432.579	3990.75
432.688	3844.75
432.797	3945.75
432.906	3821.75
433.015	4002.75
433.124	4320.75
433.233	3987.75
433.342	4046.75
433.451	4043.75
433.56	3981.75
433.669	4020.75
433.778	4031.75
433.886	4033.75
433.995	4107.75
434.104	4381.75
434.213	4198.75
434.322	4285.75
434.431	4466.75
434.54	4484.75
434.649	4658.75
434.757	4679.75
434.866	4478.75
434.975	4515.75
435.084	4459.75
435.193	4375.75
435.301	4519.75
435.41	4448.75
435.519	4563.75
435.628	3976.75
435.737	3911.75
435.845	3873.75
435.954	3764.75
436.063	3857.75
436.171	3823.75
436.28	3924.75
436.389	4019.75
436.498	3718.75
436.606	3891.75
436.715	3961.75
436.823	3679.75
436.932	3658.75
437.041	3661.75
437.149	3642.75
437.258	3640.75
437.367	3510.75
437.475	3467.75
437.584	3822.75
437.692	3476.75
437.801	5202.75
437.91	3596.75
438.018	3427.75
438.127	3332.75
438.235	3520.75
438.344	3519.75
438.452	3518.75
438.561	3489.75
438.669	3399.75
438.778	3344.75
438.886	3409.75
438.995	3346.75
439.103	3561.75
439.212	3418.75
439.32	3553.75
439.428	3517.75
439.537	3576.75
439.645	3596.75
439.754	3626.75
439.862	3391.75
439.97	3614.75
440.079	3555.75
440.187	3434.75
440.295	3713.75
440.404	3624.75
440.512	3703.75
440.62	3686.75
440.729	3796.75
440.837	3861.75
440.945	4540.75
441.054	3997.75
441.162	3997.75
441.27	4059.75
441.378	3981.75
441.487	4046.75
441.595	4553.75
441.703	4271.75
441.811	4060.75
441.92	3960.75
442.028	3855.75
442.136	3956.75
442.244	4042.75
442.352	3915.75
442.461	3789.75
442.569	3791.75
442.677	3847.75
442.785	3903.75
442.893	3851.75
443.001	3857.75
443.109	3806.75
443.217	3917.75
443.325	3836.75
443.434	4490.75
443.542	4225.75
443.65	4085.75
443.758	4283.75
443.866	4195.75
443.974	4524.75
444.082	4307.75
444.19	4410.75
444.298	4536.75
444.406	4858.75
444.514	4823.75
444.622	4979.75
444.73	4935.75
444.838	4647.75
444.946	4652.75
445.054	4458.75
445.161	4299.75
445.269	4160.75
445.377	4240.75
445.485	4099.75
445.593	3936.75
445.701	4166.75
445.809	4064.75
445.917	3840.75
446.025	3819.75
446.132	4122.75
446.24	3992.75
446.348	3861.75
446.456	3826.75
446.564	3768.75
446.671	3797.75
446.779	3887.75
446.887	3793.75
446.995	3794.75
447.102	3827.75
447.21	3764.75
447.318	3725.75
447.426	3773.75
447.533	3970.75
447.641	5153.75
447.749	3814.75
447.856	3711.75
447.964	3780.75
448.072	3880.75
448.179	3708.75
448.287	3799.75
448.395	3757.75
448.502	3713.75
448.61	3927.75
448.718	3684.75
448.825	3816.75
448.933	3793.75
449.04	3648.75
449.148	3797.75
449.256	3779.75
449.363	3865.75
449.471	3867.75
449.578	3900.75
449.686	3806.75
449.793	3957.75
449.901	3960.75
450.008	3996.75
450.116	3996.75
450.223	4059.75
450.331	4215.75
450.438	4129.75
450.546	4264.75
450.653	4372.75
450.76	4277.75
450.868	4339.75
450.975	4626.75
451.083	4347.75
451.19	4412.75
451.297	4396.75
451.405	4449.75
451.512	4394.75
451.619	4567.75
451.727	4675.75
451.834	4393.75
451.941	4426.75
452.049	4458.75
452.156	4487.75
452.263	4461.75
452.371	4540.75
452.478	4552.75
452.585	4647.75
452.692	4538.75
452.8	4638.75
452.907	4770.75
453.014	4663.75
453.121	4695.75
453.229	4615.75
453.336	4788.75
453.443	4827.75
453.55	4617.75
453.657	4673.75
453.765	4894.75
453.872	4744.75
453.979	4840.75
454.086	4861.75
454.193	4934.75
454.3	4778.75
454.407	5023.75
454.514	5135.75
454.621	4810.75
454.729	4819.75
454.836	4953.75
454.943	4887.75
455.05	4916.75
455.157	5055.75
455.264	4966.75
455.371	5116.75
455.478	5030.75
455.585	6612.75
455.692	5228.75
455.799	5293.75
455.906	5142.75
456.013	5119.75
456.12	5105.75
456.227	5222.75
456.334	5216.75
456.44	5335.75
456.547	5293.75
456.654	5160.75
456.761	5276.75
456.868	5437.75
456.975	5483.75
457.082	5458.75
457.189	5283.75
457.296	5567.75
457.402	5345.75
457.509	5361.75
457.616	5530.75
457.723	5819.75
457.83	5746.75
457.936	5820.75
458.043	6113.75
458.15	5831.75
458.257	6064.75
458.363	6122.75
458.47	6247.75
458.577	6329.75
458.684	6419.75
458.79	6625.75
458.897	6651.75
459.004	6972.75
459.11	6876.75
459.217	6825.75
459.324	6968.75
459.43	7298.75
459.537	7447.75
459.644	7421.75
459.75	7545.75
459.857	8063.75
459.964	7759.75
460.07	7883.75
460.177	8087.75
460.283	8130.75
460.39	8433.75
460.496	8051.75
460.603	8334.75
460.71	8073.75
460.816	8113.75
460.923	8014.75
461.029	8084.75
461.136	8218.75
461.242	7991.75
461.349	8161.75
461.455	8167.75
461.562	8401.75
461.668	8332.75
461.774	8217.75
461.881	8509.75
461.987	8611.75
462.094	8940.75
462.2	9055.75
462.307	8899.75
462.413	8855.75
462.519	9411.75
462.626	9788.75
462.732	10027.75
462.838	10617.75
462.945	10864.75
463.051	10809.75
463.157	10480.75
463.264	10231.75
463.37	9773.75
463.476	9552.75
463.583	9471.75
463.689	9249.75
463.795	9440.75
463.901	9480.75
464.008	9632.75
464.114	9367.75
464.22	9327.75
464.326	9263.75
464.433	8821.75
464.539	8817.75
464.645	8504.75
464.751	8585.75
464.857	8294.75
464.963	7890.75
465.07	7650.75
465.176	7336.75
465.282	7132.75
465.388	6996.75
465.494	6648.75
465.6	6545.75
465.706	6319.75
465.812	6286.75
465.918	6383.75
466.024	6264.75
466.131	6136.75
466.237	6016.75
466.343	5875.75
466.449	5767.75
466.555	5712.75
466.661	5565.75
466.767	5611.75
466.873	5598.75
466.979	5752.75
467.085	5603.75
467.191	5580.75
467.296	5579.75
467.402	5383.75
467.508	5416.75
467.614	5580.75
467.72	5325.75
467.826	5156.75
467.932	5134.75
468.038	5095.75
468.144	5029.75
468.25	4952.75
468.355	5030.75
468.461	5021.75
468.567	5031.75
468.673	4951.75
468.779	5033.75
468.885	4959.75
468.99	5010.75
469.096	5111.75
469.202	5058.75
469.308	5086.75
469.413	5377.75
469.519	5151.75
469.625	5096.75
469.731	5208.75
469.836	5188.75
469.942	5498.75
470.048	5401.75
470.153	5404.75
470.259	5231.75
470.365	5417.75
470.47	5320.75
470.576	5135.75
470.682	5253.75
470.787	5122.75
470.893	4904.75
470.999	4967.75
471.104	5019.75
471.21	4752.75
471.315	4644.75
471.421	4643.75
471.527	4860.75
471.632	4738.75
471.738	4651.75
471.843	4554.75
471.949	4458.75
472.054	4461.75
472.16	4508.75
472.265	4386.75
472.371	4287.75
472.476	4370.75
472.582	4441.75
472.687	4262.75
472.793	4239.75
472.898	4252.75
473.003	4143.75
473.109	4176.75
473.214	4216.75
473.32	4101.75
473.425	4259.75
473.53	4139.75
473.636	4191.75
473.741	4028.75
473.847	4119.75
473.952	4241.75
474.057	4138.75
474.163	4235.75
474.268	4120.75
474.373	4154.75
474.478	4057.75
474.584	4074.75
474.689	4096.75
474.794	4175.75
474.9	4442.75
475.005	4123.75
475.11	4339.75
475.215	4100.75
475.321	4113.75
475.426	4379.75
475.531	4253.75
475.636	4216.75
475.741	4158.75
475.846	4236.75
475.952	4497.75
476.057	4242.75
476.162	4392.75
476.267	4477.75
476.372	4583.75
476.477	4361.75
476.582	4554.75
476.687	4298.75
476.793	4399.75
476.898	4362.75
477.003	4575.75
477.108	4517.75
477.213	4567.75
477.318	4561.75
477.423	4651.75
477.528	4783.75
477.633	4864.75
477.738	4832.75
477.843	4910.75
477.948	4916.75
478.053	4963.75
478.158	4990.75
478.263	5089.75
478.368	5162.75
478.473	5199.75
478.578	5251.75
478.682	5304.75
478.787	5354.75
478.892	5235.75
478.997	5391.75
479.102	5236.75
479.207	5267.75
479.312	5485.75
479.417	5339.75
479.521	5330.75
479.626	5441.75
479.731	5495.75
479.836	5507.75
479.941	5785.75
480.045	5855.75
480.15	5870.75
480.255	5895.75
480.36	6025.75
480.465	5880.75
480.569	5956.75
480.674	5775.75
480.779	5435.75
480.883	5588.75
480.988	5590.75
481.093	5552.75
481.197	5467.75
481.302	5522.75
481.407	5518.75
481.511	7728.75
481.616	5576.75
481.721	5501.75
481.825	5658.75
481.93	5394.75
482.035	5498.75
482.139	5630.75
482.244	5468.75
482.348	5492.75
482.453	5644.75
482.557	5679.75
482.662	5683.75
482.767	5596.75
482.871	5563.75
482.976	5719.75
483.08	5744.75
483.185	5901.75
483.289	5769.75
483.394	5834.75
483.498	6013.75
483.603	5915.75
483.707	6035.75
483.811	6106.75
483.916	6172.75
484.02	5988.75
484.125	6258.75
484.229	6305.75
484.333	6316.75
484.438	6338.75
484.542	6359.75
484.647	6428.75
484.751	6482.75
484.855	6600.75
484.96	6568.75
485.064	6666.75
485.168	6763.75
485.273	6788.75
485.377	6737.75
485.481	7041.75
485.585	6947.75
485.69	6913.75
485.794	6993.75
485.898	7072.75
486.002	6982.75
486.107	7022.75
486.211	6979.75
486.315	7005.75
486.419	7068.75
486.524	7084.75
486.628	6954.75
486.732	6932.75
486.836	7019.75
486.94	7004.75
487.044	7064.75
487.148	7008.75
487.253	6909.75
487.357	7012.75
487.461	7201.75
487.565	6973.75
487.669	7012.75
487.773	6908.75
487.877	7229.75
487.981	7010.75
488.085	7039.75
488.189	7076.75
488.293	7146.75
488.397	7513.75
488.501	7049.75
488.605	6998.75
488.709	7018.75
488.813	7069.75
488.917	6988.75
489.021	7165.75
489.125	7385.75
489.229	7098.75
489.333	7191.75
489.437	7184.75
489.541	7142.75
489.645	7031.75
489.749	7141.75
489.853	7334.75
489.956	7161.75
490.06	7272.75
490.164	7118.75
490.268	7200.75
490.372	7171.75
490.476	7049.75
490.579	7195.75
490.683	7944.75
490.787	7320.75
490.891	7163.75
490.995	7150.75
491.098	7240.75
491.202	7196.75
491.306	7193.75
491.41	7215.75
491.513	7032.75
491.617	7193.75
491.721	7357.75
491.824	7342.75
491.928	7162.75
492.032	7503.75
492.136	7149.75
492.239	7056.75
492.343	7112.75
492.446	7738.75
492.55	7304.75
492.654	7135.75
492.757	7209.75
492.861	7321.75
492.965	7219.75
493.068	7212.75
493.172	7159.75
493.275	7231.75
493.379	7102.75
493.482	7279.75
493.586	7463.75
493.689	7444.75
493.793	7246.75
493.896	7441.75
494	7479.75
494.103	7371.75
494.207	7788.75
494.31	7768.75
494.414	7339.75
494.517	7316.75
494.621	7284.75
494.724	7206.75
494.828	7136.75
494.931	7182.75
495.034	7144.75
495.138	7287.75
495.241	6940.75
495.345	8004.75
495.448	7346.75
495.551	7024.75
495.655	7140.75
495.758	7071.75
495.861	7075.75
495.965	7219.75
496.068	7195.75
496.171	7274.75
496.274	7264.75
496.378	7264.75
496.481	7326.75
496.584	7307.75
496.687	7467.75
496.791	7444.75
496.894	7397.75
496.997	7492.75
497.1	7682.75
497.204	7766.75
497.307	7738.75
497.41	7920.75
497.513	8071.75
497.616	7967.75
497.719	8059.75
497.823	8170.75
497.926	8348.75
498.029	8561.75
498.132	8747.75
498.235	8985.75
498.338	9254.75
498.441	9467.75
498.544	9788.75
498.647	10088.75
498.75	10565.75
498.853	10789.75
498.956	11172.75
499.059	11699.75
499.163	11866.75
499.266	12474.75
499.369	13025.75
499.471	13497.75
499.574	14254.75
499.677	14581.75
499.78	14581.75
499.883	14581.75
499.986	14581.75
500.089	14581.75
500.192	14581.75
500.295	14581.75
500.398	14581.75
500.501	14581.75
500.604	14581.75
500.707	14581.75
500.809	14581.75
500.912	14581.75
501.015	14378.75
501.118	13361.75
501.221	12846.75
501.324	12120.75
501.426	11618.75
501.529	11005.75
501.632	10554.75
501.735	10062.75
501.837	9788.75
501.94	9473.75
502.043	9178.75
502.146	8946.75
502.248	8857.75
502.351	8468.75
502.454	8332.75
502.557	8087.75
502.659	7996.75
502.762	7645.75
502.865	7431.75
502.967	7260.75
503.07	7195.75
503.173	7168.75
503.275	6941.75
503.378	7020.75
503.48	6791.75
503.583	6829.75
503.686	6851.75
503.788	6983.75
503.891	6858.75
503.993	7014.75
504.096	6778.75
504.198	6907.75
504.301	6854.75
504.403	6926.75
504.506	6715.75
504.608	6560.75
504.711	6457.75
504.813	6336.75
504.916	6016.75
505.018	6040.75
505.121	5702.75
505.223	5724.75
505.326	5591.75
505.428	5579.75
505.531	5393.75
505.633	5434.75
505.735	5292.75
505.838	5168.75
505.94	5188.75
506.042	5192.75
506.145	5084.75
506.247	5106.75
506.35	5059.75
506.452	5001.75
506.554	5127.75
506.656	5087.75
506.759	4949.75
506.861	4950.75
506.963	4913.75
507.066	5022.75
507.168	5115.75
507.27	4817.75
507.372	4796.75
507.475	4716.75
507.577	4785.75
507.679	4755.75
507.781	4596.75
507.883	4635.75
507.986	4590.75
508.088	4658.75
508.19	4612.75
508.292	4624.75
508.394	4636.75
508.496	4549.75
508.598	4533.75
508.701	4580.75
508.803	4551.75
508.905	4377.75
509.007	4583.75
509.109	4513.75
509.211	4565.75
509.313	4463.75
509.415	4465.75
509.517	4522.75
509.619	4360.75
509.721	4502.75
509.823	4402.75
509.925	4646.75
510.027	4575.75
510.129	4439.75
510.231	4462.75
510.333	4422.75
510.435	4377.75
510.537	4359.75
510.639	4631.75
510.741	4459.75
510.843	4445.75
510.945	4374.75
511.047	4527.75
511.148	4404.75
511.25	4369.75
511.352	4472.75
511.454	4328.75
511.556	4552.75
511.658	4476.75
511.76	4494.75
511.861	4512.75
511.963	4355.75
512.065	4391.75
512.167	4332.75
512.268	4568.75
512.37	4452.75
512.472	4460.75
512.574	4566.75
512.676	4611.75
512.777	4340.75
512.879	4341.75
512.981	4424.75
513.082	4506.75
513.184	4516.75
513.286	5040.75
513.387	4611.75
513.489	4702.75
513.591	4515.75
513.692	4691.75
513.794	4631.75
513.896	4546.75
513.997	4603.75
514.099	4568.75
514.2	4639.75
514.302	4739.75
514.404	4716.75
514.505	4666.75
514.607	4831.75
514.708	4711.75
514.81	4695.75
514.911	4889.75
515.013	5075.75
515.114	4892.75
515.216	4895.75
515.317	5006.75
515.419	4875.75
515.52	5048.75
515.622	5058.75
515.723	5232.75
515.825	5471.75
515.926	5323.75
516.027	5332.75
516.129	5414.75
516.23	5586.75
516.332	5687.75
516.433	5793.75
516.534	5958.75
516.636	6033.75
516.737	5934.75
516.838	7450.75
516.94	6626.75
517.041	6582.75
517.142	6784.75
517.244	6935.75
517.345	6946.75
517.446	7127.75
517.547	7205.75
517.649	7051.75
517.75	7092.75
517.851	7002.75
517.952	7337.75
518.054	6825.75
518.155	6941.75
518.256	6607.75
518.357	6706.75
518.458	6305.75
518.56	6218.75
518.661	6205.75
518.762	6068.75
518.863	6171.75
518.964	5987.75
519.065	5808.75
519.166	5682.75
519.268	5627.75
519.369	5886.75
519.47	5518.75
519.571	5605.75
519.672	5525.75
519.773	5424.75
519.874	5496.75
519.975	5545.75
520.076	5434.75
520.177	5447.75
520.278	5421.75
520.379	5344.75
520.48	5123.75
520.581	5352.75
520.682	5274.75
520.783	5297.75
520.884	5333.75
520.985	5281.75
521.086	5182.75
521.187	5277.75
521.288	5163.75
521.389	5251.75
521.489	5168.75
521.59	5180.75
521.691	5187.75
521.792	5097.75
521.893	5370.75
521.994	5368.75
522.095	5188.75
522.195	5284.75
522.296	5159.75
522.397	5267.75
522.498	5196.75
522.599	5134.75
522.699	5148.75
522.8	5086.75
522.901	5216.75
523.002	5058.75
523.102	5386.75
523.203	5200.75
523.304	5420.75
523.405	5087.75
523.505	5098.75
523.606	5193.75
523.707	5224.75
523.807	5230.75
523.908	5220.75
524.009	5211.75
524.109	5191.75
524.21	5167.75
524.31	5185.75
524.411	5318.75
524.512	5292.75
524.612	5194.75
524.713	5386.75
524.813	5196.75
524.914	5471.75
525.014	11393.75
525.115	5641.75
525.216	5167.75
525.316	5263.75
525.417	5241.75
525.517	5256.75
525.618	5327.75
525.718	5246.75
525.819	5209.75
525.919	5196.75
526.019	5239.75
526.12	5291.75
526.22	5186.75
526.321	5158.75
526.421	5232.75
526.522	5284.75
526.622	5194.75
526.722	5195.75
526.823	5330.75
526.923	5225.75
527.023	5292.75
527.124	5278.75
527.224	5276.75
527.324	5169.75
527.425	5213.75
527.525	5192.75
527.625	5192.75
527.726	5156.75
527.826	5319.75
527.926	5264.75
528.026	5265.75
528.127	5227.75
528.227	5243.75
528.327	5305.75
528.427	5286.75
528.528	5246.75
528.628	5282.75
528.728	5218.75
528.828	5312.75
528.928	5296.75
529.029	5160.75
529.129	5286.75
529.229	5138.75
529.329	5199.75
529.429	5377.75
529.529	5353.75
529.629	5271.75
529.729	5263.75
529.829	5367.75
529.93	5182.75
530.03	5358.75
530.13	5268.75
530.23	5315.75
530.33	5318.75
530.43	5359.75
530.53	5226.75
530.63	5282.75
530.73	5210.75
530.83	5034.75
530.93	5031.75
531.03	5253.75
531.13	5215.75
531.23	5186.75
531.33	5163.75
531.429	5346.75
531.529	5375.75
531.629	5157.75
531.729	5104.75
531.829	5103.75
531.929	5096.75
532.029	5124.75
532.129	5096.75
532.229	5143.75
532.328	5098.75
532.428	5105.75
532.528	5013.75
532.628	4838.75
532.728	5030.75
532.827	4972.75
532.927	5078.75
533.027	4974.75
533.127	5133.75
533.227	5089.75
533.326	4996.75
533.426	4829.75
533.526	5060.75
533.625	5161.75
533.725	5199.75
533.825	4909.75
533.924	4764.75
534.024	4788.75
534.124	4792.75
534.223	4878.75
534.323	5399.75
534.423	4844.75
534.522	4807.75
534.622	4797.75
534.722	4687.75
534.821	4731.75
534.921	4663.75
535.02	4623.75
535.12	4750.75
535.219	4758.75
535.319	4722.75
535.419	4753.75
535.518	4555.75
535.618	4663.75
535.717	4746.75
535.817	4434.75
535.916	4409.75
536.016	4513.75
536.115	4398.75
536.215	4412.75
536.314	4369.75
536.413	4295.75
536.513	4340.75
536.612	4370.75
536.712	4168.75
536.811	4174.75
536.91	4315.75
537.01	4205.75
537.109	4265.75
537.209	4367.75
537.308	4275.75
537.407	4204.75
537.507	4274.75
537.606	4135.75
537.705	4212.75
537.805	4219.75
537.904	4191.75
538.003	4184.75
538.102	4344.75
538.202	4223.75
538.301	4165.75
538.4	4171.75
538.499	4131.75
538.599	4156.75
538.698	4327.75
538.797	4021.75
538.896	4175.75
538.995	4093.75
539.095	4090.75
539.194	4314.75
539.293	4070.75
539.392	4010.75
539.491	3982.75
539.59	4040.75
539.689	4118.75
539.789	4079.75
539.888	3867.75
539.987	3827.75
540.086	3824.75
540.185	3883.75
540.284	4008.75
540.383	3893.75
540.482	3930.75
540.581	3852.75
540.68	3846.75
540.779	3914.75
540.878	3837.75
540.977	3933.75
541.076	3878.75
541.175	3875.75
541.274	4031.75
541.373	3970.75
541.472	3915.75
541.571	3747.75
541.67	5233.75
541.769	3964.75
541.868	3809.75
541.966	3778.75
542.065	3823.75
542.164	3712.75
542.263	3605.75
542.362	3741.75
542.461	3869.75
542.56	3802.75
542.658	3764.75
542.757	3683.75
542.856	3675.75
542.955	3710.75
543.054	3690.75
543.152	3923.75
543.251	3789.75
543.35	3866.75
543.449	3719.75
543.547	3663.75
543.646	3631.75
543.745	3708.75
543.843	3753.75
543.942	3661.75
544.041	3719.75
544.14	3678.75
544.238	3741.75
544.337	4036.75
544.436	3791.75
544.534	3859.75
544.633	3845.75
544.731	3793.75
544.83	3774.75
544.929	3777.75
545.027	3748.75
545.126	3682.75
545.224	3865.75
545.323	3785.75
545.421	3758.75
545.52	3759.75
545.619	3881.75
545.717	3687.75
545.816	3870.75
545.914	3881.75
546.013	4016.75
546.111	3891.75
546.209	3762.75
546.308	3561.75
546.406	3680.75
546.505	3907.75
546.603	3787.75
546.702	3677.75
546.8	3715.75
546.899	3710.75
546.997	3770.75
547.095	3703.75
547.194	3865.75
547.292	3748.75
547.39	3902.75
547.489	3834.75
547.587	4107.75
547.685	3647.75
547.784	3978.75
547.882	3841.75
547.98	3615.75
548.079	3823.75
548.177	3806.75
548.275	3633.75
548.373	3841.75
548.472	3694.75
548.57	3684.75
548.668	3843.75
548.766	3716.75
548.864	3887.75
548.963	3832.75
549.061	3956.75
549.159	3851.75
549.257	3890.75
549.355	3876.75
549.454	3873.75
549.552	3954.75
549.65	3828.75
549.748	3842.75
549.846	3839.75
549.944	3812.75
550.042	3814.75
550.14	3688.75
550.238	3743.75
550.336	3647.75
550.434	3584.75
550.532	3673.75
550.631	3775.75
550.729	3759.75
550.827	3760.75
550.925	3754.75
551.023	3713.75
551.121	3649.75
551.218	3650.75
551.316	3564.75
551.414	3698.75
551.512	3655.75
551.61	3839.75
551.708	3845.75
551.806	3881.75
551.904	3836.75
552.002	3814.75
552.1	3847.75
552.198	3865.75
552.296	4164.75
552.393	4180.75
552.491	4171.75
552.589	4144.75
552.687	4295.75
552.785	4202.75
552.882	4430.75
552.98	4625.75
553.078	4362.75
553.176	4391.75
553.274	4298.75
553.371	4246.75
553.469	4280.75
553.567	4141.75
553.665	4157.75
553.762	4624.75
553.86	4246.75
553.958	4056.75
554.055	4040.75
554.153	4076.75
554.251	4035.75
554.348	3911.75
554.446	3768.75
554.544	3937.75
554.641	4162.75
554.739	3713.75
554.837	3763.75
554.934	3838.75
555.032	3719.75
555.129	3628.75
555.227	3968.75
555.324	7323.75
555.422	3905.75
555.519	3660.75
555.617	3622.75
555.715	3479.75
555.812	5558.75
555.91	3561.75
556.007	3595.75
556.105	3532.75
556.202	3540.75
556.299	3367.75
556.397	3501.75
556.494	3505.75
556.592	3374.75
556.689	3408.75
556.787	3452.75
556.884	3327.75
556.981	3390.75
557.079	3380.75
557.176	3381.75
557.273	3385.75
557.371	3568.75
557.468	3375.75
557.566	3503.75
557.663	3295.75
557.76	3481.75
557.857	3412.75
557.955	3412.75
558.052	3587.75
558.149	3495.75
558.247	3521.75
558.344	3367.75
558.441	3314.75
558.538	3424.75
558.636	3399.75
558.733	3452.75
558.83	3450.75
558.927	3386.75
559.024	3413.75
559.122	3389.75
559.219	3362.75
559.316	3624.75
559.413	3578.75
559.51	3387.75
559.607	3418.75
559.704	3441.75
559.801	3576.75
559.899	3400.75
559.996	3790.75
560.093	3496.75
560.19	3333.75
560.287	3535.75
560.384	3630.75
560.481	3502.75
560.578	3437.75
560.675	3410.75
560.772	3529.75
560.869	3588.75
560.966	3654.75
561.063	3486.75
561.16	3575.75
561.257	3545.75
561.354	3571.75
561.451	3492.75
561.548	3692.75
561.645	3708.75
561.742	3527.75
561.838	3569.75
561.935	3603.75
562.032	3585.75
562.129	3600.75
562.226	3602.75
562.323	3537.75
562.42	3681.75
562.516	3596.75
562.613	3607.75
562.71	3684.75
562.807	4650.75
562.904	3664.75
563	3699.75
563.097	3806.75
563.194	3714.75
563.291	3674.75
563.387	3740.75
563.484	3756.75
563.581	3774.75
563.678	3764.75
563.774	4255.75
563.871	3869.75
563.968	3967.75
564.064	3945.75
564.161	3919.75
564.258	3993.75
564.354	4191.75
564.451	4080.75
564.548	4132.75
564.644	4171.75
564.741	4177.75
564.837	4131.75
564.934	4260.75
565.031	4393.75
565.127	4328.75
565.224	4518.75
565.32	4804.75
565.417	4745.75
565.513	4826.75
565.61	5015.75
565.706	5138.75
565.803	5311.75
565.899	5361.75
565.996	5531.75
566.092	5636.75
566.189	5807.75
566.285	6078.75
566.382	6368.75
566.478	6680.75
566.574	6823.75
566.671	6648.75
566.767	6732.75
566.864	6720.75
566.96	6857.75
567.056	6812.75
567.153	7317.75
567.249	7197.75
567.345	7469.75
567.442	7729.75
567.538	7754.75
567.634	7900.75
567.731	7937.75
567.827	8001.75
567.923	7807.75
568.019	7252.75
568.116	7071.75
568.212	6682.75
568.308	6619.75
568.404	6327.75
568.501	6106.75
568.597	5983.75
568.693	5791.75
568.789	6336.75
568.885	5372.75
568.982	5301.75
569.078	5034.75
569.174	4968.75
569.27	4794.75
569.366	4794.75
569.462	4527.75
569.558	4474.75
569.655	4527.75
569.751	4388.75
569.847	4305.75
569.943	4281.75
570.039	4267.75
570.135	4750.75
570.231	4197.75
570.327	4459.75
570.423	4392.75
570.519	4357.75
570.615	4248.75
570.711	4233.75
570.807	4288.75
570.903	4231.75
570.999	4207.75
571.095	4142.75
571.191	4075.75
571.287	4036.75
571.383	4019.75
571.479	3898.75
571.574	3946.75
571.67	3827.75
571.766	3944.75
571.862	3763.75
571.958	3638.75
572.054	3706.75
572.15	3642.75
572.246	3499.75
572.341	3712.75
572.437	3540.75
572.533	3568.75
572.629	3501.75
572.725	3432.75
572.82	3476.75
572.916	3538.75
573.012	3401.75
573.108	3531.75
573.203	3404.75
573.299	3371.75
573.395	3343.75
573.49	3287.75
573.586	3179.75
573.682	3289.75
573.778	3469.75
573.873	3294.75
573.969	3278.75
574.065	3366.75
574.16	3219.75
574.256	3270.75
574.351	3388.75
574.447	3212.75
574.543	3224.75
574.638	3328.75
574.734	3247.75
574.829	3476.75
574.925	3178.75
575.02	3168.75
575.116	3049.75
575.212	3163.75
575.307	3308.75
575.403	3061.75
575.498	3083.75
575.594	3170.75
575.689	3117.75
575.784	3101.75
575.88	3070.75
575.975	3111.75
576.071	2944.75
576.166	2928.75
576.262	3009.75
576.357	2927.75
576.452	3092.75
576.548	3088.75
576.643	2919.75
576.739	2962.75
576.834	3012.75
576.929	2960.75
577.025	3663.75
577.12	2942.75
577.215	2761.75
577.311	2944.75
577.406	2941.75
577.501	3082.75
577.597	2687.75
577.692	2956.75
577.787	2977.75
577.882	2713.75
577.978	2811.75
578.073	2774.75
578.168	2591.75
578.263	2670.75
578.358	2731.75
578.454	2683.75
578.549	2621.75
578.644	2581.75
578.739	2786.75
578.834	2545.75
578.929	2543.75
579.025	2720.75
579.12	2720.75
579.215	2871.75
579.31	2861.75
579.405	2495.75
579.5	2712.75
579.595	2651.75
579.69	2515.75
579.785	2516.75
579.88	2524.75
579.975	2592.75
580.07	2492.75
580.165	2560.75
580.26	2700.75
580.355	2426.75
580.45	2442.75
580.545	2451.75
580.64	2488.75
580.735	2579.75
580.83	2475.75
580.925	2435.75
581.02	2351.75
581.115	2344.75
581.21	2399.75
581.305	2432.75
581.4	2410.75
581.495	2420.75
581.589	2363.75
581.684	2284.75
581.779	2464.75
581.874	2370.75
581.969	2365.75
582.064	2349.75
582.158	2306.75
582.253	2251.75
582.348	2349.75
582.443	2312.75
582.537	2308.75
582.632	2474.75
582.727	2350.75
582.822	2258.75
582.916	2200.75
583.011	2266.75
583.106	2344.75
583.201	2304.75
583.295	2240.75
583.39	2233.75
583.485	2188.75
583.579	3933.75
583.674	2476.75
583.769	2424.75
583.863	2207.75
583.958	2239.75
584.052	2112.75
584.147	2110.75
584.242	2194.75
584.336	2167.75
584.431	2329.75
584.525	2105.75
584.62	2404.75
584.714	2224.75
584.809	2215.75
584.903	2235.75
584.998	2245.75
585.092	2077.75
585.187	2215.75
585.281	2053.75
585.376	2141.75
585.47	2168.75
585.565	2160.75
585.659	2055.75
585.754	2172.75
585.848	2108.75
585.942	2082.75
586.037	2088.75
586.131	3522.75
586.226	2184.75
586.32	2190.75
586.414	1987.75
586.509	2222.75
586.603	2139.75
586.697	2114.75
586.792	2082.75
586.886	1994.75
586.98	2188.75
587.075	2141.75
587.169	1991.75
587.263	2308.75
587.357	2145.75
587.452	2027.75
587.546	2218.75
587.64	2041.75
587.734	2018.75
587.829	2092.75
587.923	2106.75
588.017	2146.75
588.111	2094.75
588.205	2280.75
588.3	2257.75
588.394	2260.75
588.488	2394.75
588.582	2778.75
588.676	3154.75
588.77	5148.75
588.864	9715.75
588.958	9596.75
589.052	6770.75
589.147	4700.75
589.241	3602.75
589.335	3733.75
589.429	6671.75
589.523	7751.75
589.617	6054.75
589.711	4180.75
589.805	3100.75
589.899	2667.75
589.993	2364.75
590.087	2268.75
590.181	2127.75
590.275	2242.75
590.369	2133.75
590.462	2027.75
590.556	1983.75
590.65	1971.75
590.744	2051.75
590.838	1990.75
590.932	2025.75
591.026	2146.75
591.12	2231.75
591.214	2062.75
591.307	2148.75
591.401	2058.75
591.495	2151.75
591.589	2068.75
591.683	2106.75
591.777	2152.75
591.87	2529.75
591.964	2205.75
592.058	2213.75
592.152	2259.75
592.245	2243.75
592.339	2309.75
592.433	2399.75
592.527	2342.75
592.62	2242.75
592.714	2423.75
592.808	2456.75
592.901	2449.75
592.995	2384.75
593.089	2703.75
593.182	2598.75
593.276	2427.75
593.37	2403.75
593.463	2404.75
593.557	2444.75
593.65	2499.75
593.744	2545.75
593.837	2577.75
593.931	2389.75
594.025	5848.75
594.118	2714.75
594.212	2418.75
594.305	2375.75
594.399	2435.75
594.492	2706.75
594.586	2199.75
594.679	2227.75
594.773	2159.75
594.866	2168.75
594.96	2191.75
595.053	2040.75
595.146	2024.75
595.24	2048.75
595.333	1980.75
595.427	1877.75
595.52	1865.75
595.614	2079.75
595.707	1908.75
595.8	1933.75
595.894	1903.75
595.987	1773.75
596.08	1744.75
596.174	2221.75
596.267	1924.75
596.36	1828.75
596.454	1883.75
596.547	1814.75
596.64	1642.75
596.733	1649.75
596.827	1788.75
596.92	1726.75
597.013	1545.75
597.106	1587.75
597.2	1594.75
597.293	1556.75
597.386	1835.75
597.479	1689.75
597.572	1656.75
597.666	1600.75
597.759	1607.75
597.852	1626.75
597.945	1507.75
598.038	1598.75
598.131	1563.75
598.224	1578.75
598.317	1682.75
598.411	1608.75
598.504	1475.75
598.597	1656.75
598.69	1511.75
598.783	1531.75
598.876	1596.75
598.969	1599.75
599.062	1450.75
599.155	1594.75
599.248	1536.75
599.341	1531.75
599.434	1491.75
599.527	1625.75
599.62	1504.75
599.713	1522.75
599.806	1595.75
599.899	1694.75
599.991	1469.75
600.084	1816.75
600.177	1496.75
600.27	1483.75
600.363	1634.75
600.456	1503.75
600.549	1532.75
600.642	1400.75
600.734	1525.75
600.827	1431.75
600.92	1592.75
601.013	1539.75
601.106	1583.75
601.199	1419.75
601.291	1389.75
601.384	1518.75
601.477	1630.75
601.57	1540.75
601.662	1455.75
601.755	1403.75
601.848	1496.75
601.94	1455.75
602.033	1556.75
602.126	1436.75
602.219	1431.75
602.311	1557.75
602.404	1399.75
602.497	1386.75
602.589	1451.75
602.682	1439.75
602.774	1417.75
602.867	1459.75
602.96	1388.75
603.052	1383.75
603.145	1452.75
603.237	1416.75
603.33	1444.75
603.422	1625.75
603.515	1407.75
603.608	1377.75
603.7	1408.75
603.793	1449.75
603.885	1377.75
603.978	1368.75
604.07	1383.75
604.163	1382.75
604.255	1409.75
604.347	1351.75
604.44	1299.75
604.532	1471.75
604.625	1424.75
604.717	1302.75
604.81	1393.75
604.902	1358.75
604.994	1351.75
605.087	1262.75
605.179	1357.75
605.271	1398.75
605.364	1337.75
605.456	1402.75
605.548	1335.75
605.641	1349.75
605.733	1332.75
605.825	1360.75
605.918	1279.75
606.01	1497.75
606.102	1850.75
606.194	1403.75
606.287	1534.75
606.379	1261.75
606.471	1414.75
606.563	1382.75
606.655	1406.75
606.748	1453.75
606.84	1315.75
606.932	1392.75
607.024	1332.75
607.116	1259.75
607.208	1292.75
607.301	1263.75
607.393	1323.75
607.485	1298.75
607.577	1369.75
607.669	1492.75
607.761	1362.75
607.853	1589.75
607.945	1341.75
608.037	1228.75
608.129	1298.75
608.221	1286.75
608.313	1264.75
608.405	1399.75
608.497	1316.75
608.589	1277.75
608.681	1335.75
608.773	1364.75
608.865	1421.75
608.957	1323.75
609.049	1266.75
609.141	1392.75
609.233	1281.75
609.325	1255.75
609.417	1296.75
609.509	1385.75
609.601	1451.75
609.693	1410.75
609.784	1315.75
609.876	1344.75
609.968	1377.75
610.06	3871.75
610.152	1566.75
610.244	2207.75
610.335	1347.75
610.427	1251.75
610.519	1242.75
610.611	1311.75
610.702	1267.75
610.794	1267.75
610.886	1339.75
610.978	1294.75
611.069	1849.75
611.161	1280.75
611.253	1345.75
611.344	1190.75
611.436	1140.75
611.528	1278.75
611.62	1151.75
611.711	1153.75
611.803	1120.75
611.894	1097.75
611.986	1052.75
612.078	1103.75
612.169	1177.75
612.261	1054.75
612.352	1007.75
612.444	1074.75
612.536	1181.75
612.627	1010.75
612.719	969.75
612.81	915.75
612.902	874.75
612.993	979.75
613.085	927.75
613.176	836.75
613.268	869.75
613.359	887.75
613.451	839.75
613.542	863.75
613.634	902.75
613.725	809.75
613.816	921.75
613.908	792.75
613.999	765.75
614.091	659.75
614.182	661.75
614.273	735.75
614.365	699.75
614.456	607.75
614.547	720.75
614.639	610.75
614.73	614.75
614.821	786.75
614.913	550.75
615.004	491.75
615.095	539.75
615.187	499.75
