Data from 42g_HRC06701__2__489.txt Node

Date: Thu Apr 18 02:42:05 CDT 2024
User: Estudiantes 2
Spectrometer: HR+C0670
Trigger mode: 4
Integration Time (sec): 1.000000E0
Scans to average: 1
Electric dark correction enabled: true
Nonlinearity correction enabled: false
Boxcar width: 0
XAxis mode: Wavelengths
Number of Pixels in Spectrum: 2048
>>>>>Begin Spectral Data<<<<<
407.81	-116.31
407.921	-116.31
408.032	-116.31
408.143	-162.31
408.254	-141.31
408.365	64.69
408.476	299.69
408.587	-47.31
408.699	-17.31
408.81	0.69
408.921	-61.31
409.032	-41.31
409.143	89.69
409.254	18.69
409.365	105.69
409.476	3.69
409.587	-36.31
409.698	40.69
409.809	134.69
409.92	-44.31
410.031	-36.31
410.142	83.69
410.253	45.69
410.364	24.69
410.475	-19.31
410.585	104.69
410.696	64.69
410.807	30.69
410.918	116.69
411.029	99.69
411.14	82.69
411.251	125.69
411.362	169.69
411.472	128.69
411.583	111.69
411.694	154.69
411.805	58.69
411.916	84.69
412.026	173.69
412.137	79.69
412.248	95.69
412.359	93.69
412.47	33.69
412.58	40.69
412.691	156.69
412.802	82.69
412.912	59.69
413.023	71.69
413.134	103.69
413.245	194.69
413.355	66.69
413.466	118.69
413.577	57.69
413.687	142.69
413.798	47.69
413.909	121.69
414.019	62.69
414.13	130.69
414.24	46.69
414.351	130.69
414.462	268.69
414.572	184.69
414.683	125.69
414.793	46.69
414.904	466.69
415.014	119.69
415.125	50.69
415.235	173.69
415.346	207.69
415.456	190.69
415.567	121.69
415.677	101.69
415.788	138.69
415.898	75.69
416.009	124.69
416.119	107.69
416.23	78.69
416.34	74.69
416.45	114.69
416.561	891.69
416.671	269.69
416.782	-12.31
416.892	38.69
417.002	109.69
417.113	130.69
417.223	67.69
417.333	80.69
417.444	134.69
417.554	113.69
417.664	142.69
417.775	95.69
417.885	74.69
417.995	74.69
418.106	246.69
418.216	95.69
418.326	101.69
418.436	81.69
418.547	91.69
418.657	37.69
418.767	200.69
418.877	119.69
418.987	79.69
419.098	90.69
419.208	134.69
419.318	201.69
419.428	118.69
419.538	93.69
419.648	129.69
419.759	189.69
419.869	222.69
419.979	121.69
420.089	123.69
420.199	64.69
420.309	154.69
420.419	172.69
420.529	109.69
420.639	735.69
420.749	186.69
420.859	170.69
420.969	178.69
421.079	377.69
421.189	198.69
421.299	190.69
421.409	82.69
421.519	205.69
421.629	211.69
421.739	126.69
421.849	50.69
421.959	54.69
422.069	181.69
422.179	89.69
422.289	84.69
422.399	139.69
422.509	201.69
422.619	3848.69
422.729	539.69
422.838	65.69
422.948	89.69
423.058	88.69
423.168	109.69
423.278	84.69
423.388	130.69
423.498	223.69
423.607	149.69
423.717	390.69
423.827	489.69
423.937	165.69
424.046	219.69
424.156	242.69
424.266	161.69
424.376	337.69
424.485	311.69
424.595	166.69
424.705	79.69
424.815	123.69
424.924	584.69
425.034	184.69
425.144	27.69
425.253	165.69
425.363	169.69
425.473	162.69
425.582	91.69
425.692	126.69
425.801	90.69
425.911	267.69
426.021	188.69
426.13	221.69
426.24	365.69
426.349	307.69
426.459	140.69
426.568	102.69
426.678	303.69
426.787	150.69
426.897	97.69
427.006	185.69
427.116	220.69
427.225	101.69
427.335	190.69
427.444	170.69
427.554	183.69
427.663	166.69
427.773	180.69
427.882	200.69
427.992	105.69
428.101	168.69
428.21	130.69
428.32	153.69
428.429	74.69
428.539	412.69
428.648	122.69
428.757	234.69
428.867	238.69
428.976	285.69
429.085	168.69
429.195	176.69
429.304	144.69
429.413	207.69
429.523	230.69
429.632	189.69
429.741	168.69
429.85	146.69
429.96	234.69
430.069	170.69
430.178	125.69
430.287	478.69
430.397	171.69
430.506	160.69
430.615	210.69
430.724	197.69
430.833	173.69
430.943	193.69
431.052	192.69
431.161	133.69
431.27	211.69
431.379	170.69
431.488	283.69
431.597	247.69
431.706	301.69
431.816	160.69
431.925	187.69
432.034	194.69
432.143	218.69
432.252	172.69
432.361	333.69
432.47	234.69
432.579	185.69
432.688	208.69
432.797	272.69
432.906	152.69
433.015	235.69
433.124	638.69
433.233	264.69
433.342	280.69
433.451	261.69
433.56	166.69
433.669	197.69
433.778	179.69
433.886	246.69
433.995	200.69
434.104	303.69
434.213	276.69
434.322	151.69
434.431	295.69
434.54	249.69
434.649	356.69
434.757	235.69
434.866	259.69
434.975	311.69
435.084	305.69
435.193	318.69
435.301	516.69
435.41	630.69
435.519	733.69
435.628	302.69
435.737	173.69
435.845	134.69
435.954	198.69
436.063	186.69
436.171	193.69
436.28	263.69
436.389	328.69
436.498	225.69
436.606	239.69
436.715	388.69
436.823	189.69
436.932	177.69
437.041	235.69
437.149	225.69
437.258	183.69
437.367	227.69
437.475	165.69
437.584	434.69
437.692	251.69
437.801	1797.69
437.91	369.69
438.018	174.69
438.127	139.69
438.235	241.69
438.344	158.69
438.452	258.69
438.561	150.69
438.669	166.69
438.778	166.69
438.886	196.69
438.995	154.69
439.103	218.69
439.212	189.69
439.32	160.69
439.428	146.69
439.537	220.69
439.645	255.69
439.754	215.69
439.862	200.69
439.97	187.69
440.079	182.69
440.187	157.69
440.295	285.69
440.404	166.69
440.512	220.69
440.62	231.69
440.729	253.69
440.837	298.69
440.945	927.69
441.054	292.69
441.162	181.69
441.27	313.69
441.378	204.69
441.487	181.69
441.595	590.69
441.703	284.69
441.811	227.69
441.92	210.69
442.028	161.69
442.136	198.69
442.244	286.69
442.352	262.69
442.461	170.69
442.569	139.69
442.677	217.69
442.785	207.69
442.893	182.69
443.001	184.69
443.109	161.69
443.217	128.69
443.325	167.69
443.434	726.69
443.542	380.69
443.65	248.69
443.758	402.69
443.866	199.69
443.974	476.69
444.082	328.69
444.19	214.69
444.298	278.69
444.406	350.69
444.514	182.69
444.622	312.69
444.73	306.69
444.838	272.69
444.946	309.69
445.054	244.69
445.161	224.69
445.269	173.69
445.377	281.69
445.485	306.69
445.593	234.69
445.701	423.69
445.809	384.69
445.917	268.69
446.025	151.69
446.132	341.69
446.24	352.69
446.348	254.69
446.456	185.69
446.564	236.69
446.671	240.69
446.779	215.69
446.887	218.69
446.995	206.69
447.102	236.69
447.21	297.69
447.318	230.69
447.426	159.69
447.533	453.69
447.641	1511.69
447.749	377.69
447.856	227.69
447.964	248.69
448.072	363.69
448.179	182.69
448.287	297.69
448.395	266.69
448.502	202.69
448.61	255.69
448.718	207.69
448.825	267.69
448.933	257.69
449.04	194.69
449.148	189.69
449.256	256.69
449.363	286.69
449.471	233.69
449.578	266.69
449.686	216.69
449.793	344.69
449.901	226.69
450.008	257.69
450.116	260.69
450.223	217.69
450.331	270.69
450.438	238.69
450.546	245.69
450.653	274.69
450.76	313.69
450.868	307.69
450.975	429.69
451.083	318.69
451.19	343.69
451.297	310.69
451.405	334.69
451.512	250.69
451.619	410.69
451.727	413.69
451.834	273.69
451.941	288.69
452.049	262.69
452.156	297.69
452.263	300.69
452.371	255.69
452.478	360.69
452.585	380.69
452.692	268.69
452.8	341.69
452.907	463.69
453.014	313.69
453.121	287.69
453.229	334.69
453.336	361.69
453.443	381.69
453.55	291.69
453.657	333.69
453.765	318.69
453.872	374.69
453.979	366.69
454.086	313.69
454.193	381.69
454.3	319.69
454.407	427.69
454.514	405.69
454.621	280.69
454.729	287.69
454.836	306.69
454.943	341.69
455.05	358.69
455.157	393.69
455.264	309.69
455.371	317.69
455.478	318.69
455.585	601.69
455.692	374.69
455.799	457.69
455.906	314.69
456.013	370.69
456.12	264.69
456.227	320.69
456.334	400.69
456.44	448.69
456.547	322.69
456.654	328.69
456.761	311.69
456.868	403.69
456.975	417.69
457.082	339.69
457.189	271.69
457.296	318.69
457.402	327.69
457.509	266.69
457.616	374.69
457.723	558.69
457.83	346.69
457.936	344.69
458.043	669.69
458.15	365.69
458.257	415.69
458.363	404.69
458.47	353.69
458.577	396.69
458.684	333.69
458.79	437.69
458.897	427.69
459.004	482.69
459.11	457.69
459.217	417.69
459.324	492.69
459.43	570.69
459.537	721.69
459.644	480.69
459.75	449.69
459.857	840.69
459.964	510.69
460.07	558.69
460.177	556.69
460.283	573.69
460.39	659.69
460.496	597.69
460.603	574.69
460.71	525.69
460.816	518.69
460.923	454.69
461.029	526.69
461.136	557.69
461.242	498.69
461.349	504.69
461.455	522.69
461.562	837.69
461.668	634.69
461.774	542.69
461.881	653.69
461.987	556.69
462.094	575.69
462.2	638.69
462.307	627.69
462.413	538.69
462.519	533.69
462.626	713.69
462.732	625.69
462.838	682.69
462.945	771.69
463.051	673.69
463.157	602.69
463.264	675.69
463.37	656.69
463.476	643.69
463.583	648.69
463.689	560.69
463.795	622.69
463.901	697.69
464.008	737.69
464.114	541.69
464.22	506.69
464.326	610.69
464.433	504.69
464.539	558.69
464.645	536.69
464.751	713.69
464.857	538.69
464.963	488.69
465.07	536.69
465.176	503.69
465.282	519.69
465.388	643.69
465.494	398.69
465.6	444.69
465.706	446.69
465.812	333.69
465.918	486.69
466.024	454.69
466.131	489.69
466.237	386.69
466.343	336.69
466.449	338.69
466.555	354.69
466.661	354.69
466.767	368.69
466.873	384.69
466.979	522.69
467.085	453.69
467.191	361.69
467.296	295.69
467.402	369.69
467.508	376.69
467.614	500.69
467.72	385.69
467.826	346.69
467.932	338.69
468.038	322.69
468.144	343.69
468.25	323.69
468.355	256.69
468.461	396.69
468.567	279.69
468.673	309.69
468.779	365.69
468.885	283.69
468.99	255.69
469.096	355.69
469.202	437.69
469.308	389.69
469.413	416.69
469.519	339.69
469.625	309.69
469.731	347.69
469.836	357.69
469.942	475.69
470.048	337.69
470.153	402.69
470.259	345.69
470.365	419.69
470.47	448.69
470.576	396.69
470.682	349.69
470.787	315.69
470.893	319.69
470.999	368.69
471.104	386.69
471.21	343.69
471.315	253.69
471.421	295.69
471.527	532.69
471.632	362.69
471.738	353.69
471.843	296.69
471.949	343.69
472.054	341.69
472.16	277.69
472.265	354.69
472.371	290.69
472.476	327.69
472.582	419.69
472.687	285.69
472.793	241.69
472.898	320.69
473.003	277.69
473.109	259.69
473.214	220.69
473.32	250.69
473.425	364.69
473.53	317.69
473.636	269.69
473.741	251.69
473.847	267.69
473.952	361.69
474.057	334.69
474.163	331.69
474.268	292.69
474.373	359.69
474.478	200.69
474.584	230.69
474.689	342.69
474.794	340.69
474.9	546.69
475.005	304.69
475.11	439.69
475.215	256.69
475.321	331.69
475.426	458.69
475.531	448.69
475.636	296.69
475.741	217.69
475.846	379.69
475.952	549.69
476.057	396.69
476.162	369.69
476.267	486.69
476.372	636.69
476.477	296.69
476.582	402.69
476.687	283.69
476.793	287.69
476.898	286.69
477.003	351.69
477.108	316.69
477.213	242.69
477.318	285.69
477.423	354.69
477.528	403.69
477.633	405.69
477.738	402.69
477.843	266.69
477.948	335.69
478.053	355.69
478.158	294.69
478.263	357.69
478.368	350.69
478.473	415.69
478.578	353.69
478.682	313.69
478.787	434.69
478.892	343.69
478.997	446.69
479.102	397.69
479.207	314.69
479.312	448.69
479.417	416.69
479.521	362.69
479.626	474.69
479.731	424.69
479.836	374.69
479.941	510.69
480.045	493.69
480.15	463.69
480.255	403.69
480.36	370.69
480.465	451.69
480.569	550.69
480.674	398.69
480.779	355.69
480.883	356.69
480.988	386.69
481.093	439.69
481.197	387.69
481.302	398.69
481.407	444.69
481.511	2426.69
481.616	545.69
481.721	399.69
481.825	582.69
481.93	341.69
482.035	347.69
482.139	481.69
482.244	389.69
482.348	373.69
482.453	421.69
482.557	442.69
482.662	411.69
482.767	378.69
482.871	417.69
482.976	349.69
483.08	392.69
483.185	593.69
483.289	360.69
483.394	377.69
483.498	446.69
483.603	379.69
483.707	429.69
483.811	488.69
483.916	510.69
484.02	405.69
484.125	525.69
484.229	440.69
484.333	501.69
484.438	382.69
484.542	427.69
484.647	373.69
484.751	418.69
484.855	438.69
484.96	421.69
485.064	416.69
485.168	432.69
485.273	445.69
485.377	458.69
485.481	653.69
485.585	506.69
485.69	386.69
485.794	512.69
485.898	537.69
486.002	432.69
486.107	501.69
486.211	518.69
486.315	492.69
486.419	530.69
486.524	505.69
486.628	442.69
486.732	425.69
486.836	462.69
486.94	596.69
487.044	485.69
487.148	455.69
487.253	489.69
487.357	494.69
487.461	639.69
487.565	558.69
487.669	487.69
487.773	449.69
487.877	610.69
487.981	530.69
488.085	527.69
488.189	494.69
488.293	661.69
488.397	1015.69
488.501	593.69
488.605	511.69
488.709	519.69
488.813	408.69
488.917	467.69
489.021	507.69
489.125	801.69
489.229	509.69
489.333	623.69
489.437	568.69
489.541	514.69
489.645	530.69
489.749	509.69
489.853	555.69
489.956	494.69
490.06	492.69
490.164	565.69
490.268	543.69
490.372	554.69
490.476	521.69
490.579	541.69
490.683	1174.69
490.787	616.69
490.891	535.69
490.995	592.69
491.098	522.69
491.202	510.69
491.306	572.69
491.41	538.69
491.513	476.69
491.617	535.69
491.721	670.69
491.824	781.69
491.928	589.69
492.032	782.69
492.136	554.69
492.239	493.69
492.343	570.69
492.446	876.69
492.55	601.69
492.654	544.69
492.757	442.69
492.861	565.69
492.965	502.69
493.068	550.69
493.172	501.69
493.275	536.69
493.379	533.69
493.482	577.69
493.586	684.69
493.689	775.69
493.793	568.69
493.896	620.69
494	634.69
494.103	599.69
494.207	851.69
494.31	1006.69
494.414	626.69
494.517	556.69
494.621	521.69
494.724	582.69
494.828	497.69
494.931	469.69
495.034	534.69
495.138	701.69
495.241	476.69
495.345	1435.69
495.448	685.69
495.551	487.69
495.655	534.69
495.758	516.69
495.861	475.69
495.965	524.69
496.068	603.69
496.171	618.69
496.274	531.69
496.378	532.69
496.481	573.69
496.584	539.69
496.687	578.69
496.791	608.69
496.894	583.69
496.997	531.69
497.1	587.69
497.204	573.69
497.307	508.69
497.41	746.69
497.513	775.69
497.616	567.69
497.719	584.69
497.823	569.69
497.926	595.69
498.029	675.69
498.132	621.69
498.235	628.69
498.338	715.69
498.441	754.69
498.544	661.69
498.647	756.69
498.75	870.69
498.853	913.69
498.956	824.69
499.059	1102.69
499.163	872.69
499.266	874.69
499.369	935.69
499.471	947.69
499.574	1074.69
499.677	1089.69
499.78	1153.69
499.883	1132.69
499.986	1229.69
500.089	1316.69
500.192	1318.69
500.295	1270.69
500.398	1300.69
500.501	1294.69
500.604	1178.69
500.707	1178.69
500.809	1094.69
500.912	1189.69
501.015	1158.69
501.118	1009.69
501.221	1009.69
501.324	919.69
501.426	936.69
501.529	810.69
501.632	840.69
501.735	715.69
501.837	663.69
501.94	646.69
502.043	635.69
502.146	650.69
502.248	683.69
502.351	599.69
502.454	597.69
502.557	551.69
502.659	622.69
502.762	557.69
502.865	504.69
502.967	516.69
503.07	588.69
503.173	545.69
503.275	533.69
503.378	540.69
503.48	490.69
503.583	587.69
503.686	560.69
503.788	802.69
503.891	554.69
503.993	741.69
504.096	557.69
504.198	492.69
504.301	481.69
504.403	544.69
504.506	536.69
504.608	533.69
504.711	530.69
504.813	528.69
504.916	514.69
505.018	462.69
505.121	471.69
505.223	474.69
505.326	423.69
505.428	573.69
505.531	423.69
505.633	464.69
505.735	482.69
505.838	395.69
505.94	458.69
506.042	386.69
506.145	358.69
506.247	503.69
506.35	348.69
506.452	493.69
506.554	476.69
506.656	461.69
506.759	419.69
506.861	430.69
506.963	420.69
507.066	494.69
507.168	455.69
507.27	359.69
507.372	367.69
507.475	355.69
507.577	438.69
507.679	408.69
507.781	322.69
507.883	383.69
507.986	319.69
508.088	457.69
508.19	402.69
508.292	425.69
508.394	397.69
508.496	266.69
508.598	353.69
508.701	345.69
508.803	361.69
508.905	350.69
509.007	354.69
509.109	476.69
509.211	413.69
509.313	353.69
509.415	369.69
509.517	347.69
509.619	306.69
509.721	451.69
509.823	306.69
509.925	512.69
510.027	379.69
510.129	407.69
510.231	350.69
510.333	347.69
510.435	355.69
510.537	304.69
510.639	405.69
510.741	419.69
510.843	414.69
510.945	407.69
511.047	431.69
511.148	390.69
511.25	329.69
511.352	414.69
511.454	316.69
511.556	410.69
511.658	353.69
511.76	458.69
511.861	477.69
511.963	336.69
512.065	383.69
512.167	302.69
512.268	568.69
512.37	450.69
512.472	331.69
512.574	433.69
512.676	457.69
512.777	320.69
512.879	304.69
512.981	339.69
513.082	397.69
513.184	360.69
513.286	834.69
513.387	472.69
513.489	503.69
513.591	451.69
513.692	508.69
513.794	367.69
513.896	312.69
513.997	352.69
514.099	320.69
514.2	391.69
514.302	388.69
514.404	402.69
514.505	326.69
514.607	400.69
514.708	411.69
514.81	431.69
514.911	471.69
515.013	522.69
515.114	435.69
515.216	382.69
515.317	405.69
515.419	403.69
515.52	431.69
515.622	423.69
515.723	483.69
515.825	504.69
515.926	430.69
516.027	485.69
516.129	403.69
516.23	447.69
516.332	524.69
516.433	430.69
516.534	531.69
516.636	435.69
516.737	453.69
516.838	1514.69
516.94	651.69
517.041	511.69
517.142	648.69
517.244	670.69
517.345	598.69
517.446	538.69
517.547	581.69
517.649	547.69
517.75	560.69
517.851	523.69
517.952	828.69
518.054	587.69
518.155	693.69
518.256	520.69
518.357	697.69
518.458	469.69
518.56	410.69
518.661	557.69
518.762	488.69
518.863	564.69
518.964	603.69
519.065	457.69
519.166	457.69
519.268	455.69
519.369	763.69
519.47	465.69
519.571	503.69
519.672	442.69
519.773	418.69
519.874	474.69
519.975	546.69
520.076	450.69
520.177	540.69
520.278	479.69
520.379	492.69
520.48	390.69
520.581	412.69
520.682	436.69
520.783	403.69
520.884	487.69
520.985	539.69
521.086	456.69
521.187	495.69
521.288	495.69
521.389	477.69
521.489	423.69
521.59	428.69
521.691	523.69
521.792	389.69
521.893	594.69
521.994	628.69
522.095	482.69
522.195	540.69
522.296	606.69
522.397	512.69
522.498	485.69
522.599	441.69
522.699	423.69
522.8	449.69
522.901	554.69
523.002	452.69
523.102	676.69
523.203	486.69
523.304	680.69
523.405	446.69
523.505	497.69
523.606	504.69
523.707	469.69
523.807	505.69
523.908	480.69
524.009	587.69
524.109	478.69
524.21	439.69
524.31	559.69
524.411	583.69
524.512	641.69
524.612	532.69
524.713	666.69
524.813	483.69
524.914	794.69
525.014	6508.69
525.115	1048.69
525.216	472.69
525.316	491.69
525.417	497.69
525.517	470.69
525.618	488.69
525.718	409.69
525.819	410.69
525.919	551.69
526.019	422.69
526.12	582.69
526.22	470.69
526.321	418.69
526.421	368.69
526.522	449.69
526.622	417.69
526.722	412.69
526.823	486.69
526.923	494.69
527.023	605.69
527.124	446.69
527.224	571.69
527.324	419.69
527.425	550.69
527.525	420.69
527.625	461.69
527.726	485.69
527.826	623.69
527.926	477.69
528.026	474.69
528.127	419.69
528.227	498.69
528.327	552.69
528.427	477.69
528.528	586.69
528.628	533.69
528.728	469.69
528.828	616.69
528.928	566.69
529.029	479.69
529.129	545.69
529.229	513.69
529.329	509.69
529.429	615.69
529.529	600.69
529.629	569.69
529.729	510.69
529.829	710.69
529.93	448.69
530.03	582.69
530.13	549.69
530.23	495.69
530.33	620.69
530.43	525.69
530.53	558.69
530.63	521.69
530.73	404.69
530.83	429.69
530.93	429.69
531.03	437.69
531.13	593.69
531.23	438.69
531.33	493.69
531.429	615.69
531.529	632.69
531.629	514.69
531.729	438.69
531.829	433.69
531.929	443.69
532.029	512.69
532.129	445.69
532.229	513.69
532.328	428.69
532.428	518.69
532.528	387.69
532.628	398.69
532.728	507.69
532.827	393.69
532.927	529.69
533.027	473.69
533.127	607.69
533.227	504.69
533.326	512.69
533.426	414.69
533.526	561.69
533.625	613.69
533.725	804.69
533.825	554.69
533.924	422.69
534.024	443.69
534.124	396.69
534.223	492.69
534.323	934.69
534.423	514.69
534.522	482.69
534.622	378.69
534.722	454.69
534.821	454.69
534.921	373.69
535.02	399.69
535.12	517.69
535.219	551.69
535.319	578.69
535.419	497.69
535.518	433.69
535.618	490.69
535.717	544.69
535.817	374.69
535.916	295.69
536.016	494.69
536.115	378.69
536.215	422.69
536.314	408.69
536.413	295.69
536.513	408.69
536.612	412.69
536.712	319.69
536.811	396.69
536.91	377.69
537.01	353.69
537.109	425.69
537.209	412.69
537.308	413.69
537.407	376.69
537.507	424.69
537.606	395.69
537.705	426.69
537.805	419.69
537.904	392.69
538.003	410.69
538.102	492.69
538.202	403.69
538.301	506.69
538.4	468.69
538.499	399.69
538.599	467.69
538.698	613.69
538.797	360.69
538.896	520.69
538.995	425.69
539.095	394.69
539.194	621.69
539.293	414.69
539.392	365.69
539.491	404.69
539.59	401.69
539.689	521.69
539.789	483.69
539.888	342.69
539.987	250.69
540.086	348.69
540.185	443.69
540.284	411.69
540.383	404.69
540.482	379.69
540.581	349.69
540.68	349.69
540.779	430.69
540.878	441.69
540.977	458.69
541.076	379.69
541.175	439.69
541.274	601.69
541.373	491.69
541.472	470.69
541.571	345.69
541.67	1630.69
541.769	569.69
541.868	408.69
541.966	434.69
542.065	397.69
542.164	467.69
542.263	342.69
542.362	404.69
542.461	497.69
542.56	421.69
542.658	431.69
542.757	389.69
542.856	301.69
542.955	325.69
543.054	338.69
543.152	517.69
543.251	376.69
543.35	558.69
543.449	470.69
543.547	386.69
543.646	330.69
543.745	459.69
543.843	466.69
543.942	438.69
544.041	399.69
544.14	417.69
544.238	381.69
544.337	646.69
544.436	434.69
544.534	535.69
544.633	466.69
544.731	416.69
544.83	464.69
544.929	418.69
545.027	409.69
545.126	382.69
545.224	474.69
545.323	416.69
545.421	427.69
545.52	380.69
545.619	421.69
545.717	394.69
545.816	457.69
545.914	464.69
546.013	717.69
546.111	577.69
546.209	389.69
546.308	408.69
546.406	385.69
546.505	566.69
546.603	464.69
546.702	310.69
546.8	414.69
546.899	434.69
546.997	443.69
547.095	408.69
547.194	455.69
547.292	461.69
547.39	483.69
547.489	425.69
547.587	788.69
547.685	401.69
547.784	653.69
547.882	514.69
547.98	368.69
548.079	440.69
548.177	390.69
548.275	376.69
548.373	514.69
548.472	387.69
548.57	449.69
548.668	504.69
548.766	336.69
548.864	552.69
548.963	379.69
549.061	555.69
549.159	389.69
549.257	442.69
549.355	386.69
549.454	375.69
549.552	432.69
549.65	395.69
549.748	347.69
549.846	434.69
549.944	370.69
550.042	379.69
550.14	396.69
550.238	369.69
550.336	330.69
550.434	332.69
550.532	361.69
550.631	491.69
550.729	427.69
550.827	530.69
550.925	378.69
551.023	397.69
551.121	417.69
551.218	368.69
551.316	315.69
551.414	390.69
551.512	301.69
551.61	396.69
551.708	529.69
551.806	433.69
551.904	357.69
552.002	314.69
552.1	432.69
552.198	342.69
552.296	526.69
552.393	590.69
552.491	527.69
552.589	532.69
552.687	621.69
552.785	441.69
552.882	566.69
552.98	727.69
553.078	570.69
553.176	555.69
553.274	434.69
553.371	479.69
553.469	435.69
553.567	433.69
553.665	425.69
553.762	882.69
553.86	578.69
553.958	513.69
554.055	410.69
554.153	529.69
554.251	465.69
554.348	480.69
554.446	348.69
554.544	403.69
554.641	779.69
554.739	410.69
554.837	430.69
554.934	437.69
555.032	394.69
555.129	370.69
555.227	716.69
555.324	3279.69
555.422	694.69
555.519	424.69
555.617	417.69
555.715	267.69
555.812	2156.69
555.91	534.69
556.007	415.69
556.105	373.69
556.202	471.69
556.299	329.69
556.397	363.69
556.494	408.69
556.592	334.69
556.689	389.69
556.787	369.69
556.884	302.69
556.981	330.69
557.079	282.69
557.176	432.69
557.273	353.69
557.371	470.69
557.468	388.69
557.566	358.69
557.663	358.69
557.76	453.69
557.857	339.69
557.955	414.69
558.052	481.69
558.149	502.69
558.247	525.69
558.344	352.69
558.441	358.69
558.538	366.69
558.636	310.69
558.733	449.69
558.83	339.69
558.927	376.69
559.024	415.69
559.122	316.69
559.219	409.69
559.316	478.69
559.413	519.69
559.51	329.69
559.607	361.69
559.704	447.69
559.801	464.69
559.899	405.69
559.996	658.69
560.093	422.69
560.19	335.69
560.287	468.69
560.384	536.69
560.481	345.69
560.578	398.69
560.675	347.69
560.772	407.69
560.869	365.69
560.966	562.69
561.063	344.69
561.16	429.69
561.257	420.69
561.354	370.69
561.451	348.69
561.548	456.69
561.645	568.69
561.742	390.69
561.838	395.69
561.935	418.69
562.032	363.69
562.129	393.69
562.226	482.69
562.323	370.69
562.42	412.69
562.516	417.69
562.613	331.69
562.71	397.69
562.807	1184.69
562.904	388.69
563	426.69
563.097	407.69
563.194	360.69
563.291	340.69
563.387	386.69
563.484	438.69
563.581	360.69
563.678	354.69
563.774	823.69
563.871	436.69
563.968	416.69
564.064	470.69
564.161	378.69
564.258	348.69
564.354	459.69
564.451	474.69
564.548	435.69
564.644	453.69
564.741	439.69
564.837	333.69
564.934	374.69
565.031	439.69
565.127	410.69
565.224	463.69
565.32	602.69
565.417	470.69
565.513	478.69
565.61	530.69
565.706	577.69
565.803	525.69
565.899	479.69
565.996	611.69
566.092	523.69
566.189	507.69
566.285	564.69
566.382	544.69
566.478	570.69
566.574	674.69
566.671	557.69
566.767	554.69
566.864	553.69
566.96	615.69
567.056	546.69
567.153	870.69
567.249	775.69
567.345	679.69
567.442	733.69
567.538	784.69
567.634	632.69
567.731	670.69
567.827	715.69
567.923	745.69
568.019	549.69
568.116	524.69
568.212	551.69
568.308	627.69
568.404	582.69
568.501	575.69
568.597	573.69
568.693	516.69
568.789	1253.69
568.885	515.69
568.982	508.69
569.078	543.69
569.174	582.69
569.27	367.69
569.366	498.69
569.462	482.69
569.558	405.69
569.655	472.69
569.751	439.69
569.847	390.69
569.943	408.69
570.039	385.69
570.135	842.69
570.231	393.69
570.327	553.69
570.423	497.69
570.519	454.69
570.615	365.69
570.711	492.69
570.807	438.69
570.903	374.69
570.999	459.69
571.095	388.69
571.191	366.69
571.287	464.69
571.383	446.69
571.479	423.69
571.574	505.69
571.67	374.69
571.766	582.69
571.862	358.69
571.958	360.69
572.054	455.69
572.15	310.69
572.246	303.69
572.341	419.69
572.437	345.69
572.533	422.69
572.629	366.69
572.725	359.69
572.82	353.69
572.916	485.69
573.012	342.69
573.108	454.69
573.203	375.69
573.299	274.69
573.395	280.69
573.49	292.69
573.586	284.69
573.682	351.69
573.778	477.69
573.873	297.69
573.969	258.69
574.065	349.69
574.16	377.69
574.256	326.69
574.351	396.69
574.447	321.69
574.543	326.69
574.638	402.69
574.734	431.69
574.829	519.69
574.925	355.69
575.02	351.69
575.116	310.69
575.212	314.69
575.307	499.69
575.403	304.69
575.498	329.69
575.594	322.69
575.689	411.69
575.784	378.69
575.88	357.69
575.975	433.69
576.071	303.69
576.166	253.69
576.262	339.69
576.357	255.69
576.452	470.69
576.548	351.69
576.643	310.69
576.739	320.69
576.834	341.69
576.929	394.69
577.025	1023.69
577.12	303.69
577.215	296.69
577.311	319.69
577.406	401.69
577.501	529.69
577.597	237.69
577.692	426.69
577.787	457.69
577.882	316.69
577.978	313.69
578.073	273.69
578.168	301.69
578.263	244.69
578.358	294.69
578.454	298.69
578.549	230.69
578.644	232.69
578.739	373.69
578.834	291.69
578.929	235.69
579.025	267.69
579.12	378.69
579.215	496.69
579.31	538.69
579.405	333.69
579.5	385.69
579.595	297.69
579.69	282.69
579.785	233.69
579.88	257.69
579.975	326.69
580.07	261.69
580.165	266.69
580.26	430.69
580.355	335.69
580.45	242.69
580.545	233.69
580.64	319.69
580.735	373.69
580.83	310.69
580.925	285.69
581.02	201.69
581.115	223.69
581.21	216.69
581.305	265.69
581.4	250.69
581.495	257.69
581.589	310.69
581.684	172.69
581.779	338.69
581.874	349.69
581.969	272.69
582.064	202.69
582.158	265.69
582.253	225.69
582.348	214.69
582.443	260.69
582.537	273.69
582.632	462.69
582.727	264.69
582.822	289.69
582.916	211.69
583.011	208.69
583.106	311.69
583.201	234.69
583.295	238.69
583.39	241.69
583.485	170.69
583.579	2201.69
583.674	517.69
583.769	528.69
583.863	280.69
583.958	301.69
584.052	196.69
584.147	228.69
584.242	186.69
584.336	258.69
584.431	390.69
584.525	198.69
584.62	437.69
584.714	350.69
584.809	271.69
584.903	285.69
584.998	279.69
585.092	150.69
585.187	246.69
585.281	226.69
585.376	279.69
585.47	276.69
585.565	310.69
585.659	130.69
585.754	202.69
585.848	301.69
585.942	183.69
586.037	234.69
586.131	1070.69
586.226	311.69
586.32	306.69
586.414	125.69
586.509	352.69
586.603	277.69
586.697	228.69
586.792	271.69
586.886	139.69
586.98	340.69
587.075	271.69
587.169	188.69
587.263	401.69
587.357	270.69
587.452	194.69
587.546	314.69
587.64	198.69
587.734	285.69
587.829	263.69
587.923	218.69
588.017	299.69
588.111	225.69
588.205	321.69
588.3	259.69
588.394	215.69
588.488	219.69
588.582	365.69
588.676	438.69
588.77	845.69
588.864	1739.69
588.958	1649.69
589.052	951.69
589.147	715.69
589.241	581.69
589.335	510.69
589.429	1132.69
589.523	1307.69
589.617	950.69
589.711	616.69
589.805	460.69
589.899	444.69
589.993	268.69
590.087	186.69
590.181	234.69
590.275	239.69
590.369	173.69
590.462	214.69
590.556	149.69
590.65	147.69
590.744	211.69
590.838	185.69
590.932	193.69
591.026	322.69
591.12	396.69
591.214	193.69
591.307	235.69
591.401	232.69
591.495	283.69
591.589	172.69
591.683	262.69
591.777	301.69
591.87	622.69
591.964	339.69
592.058	187.69
592.152	275.69
592.245	238.69
592.339	346.69
592.433	359.69
592.527	264.69
592.62	193.69
592.714	201.69
592.808	271.69
592.901	334.69
592.995	158.69
593.089	494.69
593.182	312.69
593.276	198.69
593.37	190.69
593.463	231.69
593.557	297.69
593.65	247.69
593.744	246.69
593.837	363.69
593.931	217.69
594.025	3431.69
594.118	584.69
594.212	235.69
594.305	170.69
594.399	330.69
594.492	622.69
594.586	251.69
594.679	220.69
594.773	206.69
594.866	285.69
594.96	199.69
595.053	217.69
595.146	174.69
595.24	178.69
595.333	205.69
595.427	120.69
595.52	129.69
595.614	366.69
595.707	224.69
595.8	165.69
595.894	232.69
595.987	191.69
596.08	164.69
596.174	592.69
596.267	400.69
596.36	304.69
596.454	366.69
596.547	343.69
596.64	168.69
596.733	138.69
596.827	283.69
596.92	197.69
597.013	117.69
597.106	117.69
597.2	166.69
597.293	136.69
597.386	421.69
597.479	257.69
597.572	221.69
597.666	185.69
597.759	236.69
597.852	266.69
597.945	132.69
598.038	174.69
598.131	178.69
598.224	165.69
598.317	262.69
598.411	262.69
598.504	145.69
598.597	223.69
598.69	200.69
598.783	145.69
598.876	205.69
598.969	204.69
599.062	53.69
599.155	198.69
599.248	150.69
599.341	207.69
599.434	118.69
599.527	215.69
599.62	167.69
599.713	147.69
599.806	199.69
599.899	377.69
599.991	162.69
600.084	395.69
600.177	194.69
600.27	135.69
600.363	362.69
600.456	153.69
600.549	246.69
600.642	86.69
600.734	161.69
600.827	187.69
600.92	297.69
601.013	150.69
601.106	284.69
601.199	109.69
601.291	152.69
601.384	217.69
601.477	330.69
601.57	265.69
601.662	150.69
601.755	176.69
601.848	197.69
601.94	146.69
602.033	301.69
602.126	167.69
602.219	121.69
602.311	307.69
602.404	113.69
602.497	132.69
602.589	154.69
602.682	174.69
602.774	213.69
602.867	203.69
602.96	157.69
603.052	153.69
603.145	124.69
603.237	193.69
603.33	132.69
603.422	284.69
603.515	158.69
603.608	182.69
603.7	144.69
603.793	201.69
603.885	200.69
603.978	147.69
604.07	170.69
604.163	125.69
604.255	139.69
604.347	113.69
604.44	106.69
604.532	143.69
604.625	173.69
604.717	149.69
604.81	161.69
604.902	135.69
604.994	122.69
605.087	98.69
605.179	135.69
605.271	187.69
605.364	174.69
605.456	197.69
605.548	117.69
605.641	201.69
605.733	129.69
605.825	140.69
605.918	136.69
606.01	336.69
606.102	649.69
606.194	246.69
606.287	336.69
606.379	129.69
606.471	219.69
606.563	230.69
606.655	205.69
606.748	237.69
606.84	187.69
606.932	203.69
607.024	127.69
607.116	114.69
607.208	129.69
607.301	175.69
607.393	157.69
607.485	129.69
607.577	165.69
607.669	274.69
607.761	255.69
607.853	417.69
607.945	127.69
608.037	109.69
608.129	117.69
608.221	125.69
608.313	141.69
608.405	218.69
608.497	154.69
608.589	133.69
608.681	175.69
608.773	222.69
608.865	147.69
608.957	181.69
609.049	145.69
609.141	236.69
609.233	159.69
609.325	81.69
609.417	143.69
609.509	296.69
609.601	267.69
609.693	229.69
609.784	159.69
609.876	162.69
609.968	160.69
610.06	1377.69
610.152	361.69
610.244	1014.69
610.335	173.69
610.427	217.69
610.519	136.69
610.611	174.69
610.702	161.69
610.794	176.69
610.886	225.69
610.978	223.69
611.069	702.69
611.161	205.69
611.253	281.69
611.344	150.69
611.436	113.69
611.528	188.69
611.62	151.69
611.711	144.69
611.803	95.69
611.894	147.69
611.986	99.69
612.078	140.69
612.169	169.69
612.261	122.69
612.352	91.69
612.444	86.69
612.536	274.69
612.627	133.69
612.719	72.69
612.81	117.69
612.902	23.69
612.993	95.69
613.085	142.69
613.176	41.69
613.268	109.69
613.359	127.69
613.451	123.69
613.542	110.69
613.634	90.69
613.725	150.69
613.816	213.69
613.908	83.69
613.999	129.69
614.091	30.69
614.182	29.69
614.273	112.69
614.365	59.69
614.456	-1.31
614.547	80.69
614.639	24.69
614.73	41.69
614.821	142.69
614.913	24.69
615.004	-41.31
615.095	-9.31
615.187	21.69
