Data from 21g_HRC06701__63__307.txt Node

Date: Thu Apr 18 02:08:42 CDT 2024
User: Estudiantes 2
Spectrometer: HR+C0670
Trigger mode: 4
Integration Time (sec): 1.000000E0
Scans to average: 1
Electric dark correction enabled: true
Nonlinearity correction enabled: false
Boxcar width: 0
XAxis mode: Wavelengths
Number of Pixels in Spectrum: 2048
>>>>>Begin Spectral Data<<<<<
407.81	-146.62
407.921	-146.62
408.032	-146.62
408.143	-137.62
408.254	-145.62
408.365	20.38
408.476	283.38
408.587	-20.62
408.699	-13.62
408.81	15.38
408.921	-30.62
409.032	-31.62
409.143	44.38
409.254	14.38
409.365	86.38
409.476	-22.62
409.587	35.38
409.698	49.38
409.809	96.38
409.92	0.38
410.031	-38.62
410.142	75.38
410.253	64.38
410.364	45.38
410.475	163.38
410.585	1028.38
410.696	1175.38
410.807	1035.38
410.918	1076.38
411.029	1174.38
411.14	1110.38
411.251	1044.38
411.362	1163.38
411.472	1140.38
411.583	1120.38
411.694	1255.38
411.805	1085.38
411.916	1146.38
412.026	1237.38
412.137	1197.38
412.248	1137.38
412.359	1119.38
412.47	1064.38
412.58	1015.38
412.691	1131.38
412.802	1131.38
412.912	1093.38
413.023	1079.38
413.134	1130.38
413.245	1160.38
413.355	1116.38
413.466	1101.38
413.577	1099.38
413.687	1105.38
413.798	1019.38
413.909	1147.38
414.019	1159.38
414.13	1184.38
414.24	1148.38
414.351	1199.38
414.462	1341.38
414.572	1199.38
414.683	1160.38
414.793	1075.38
414.904	1557.38
415.014	1143.38
415.125	1030.38
415.235	1181.38
415.346	1304.38
415.456	1231.38
415.567	1158.38
415.677	1129.38
415.788	1147.38
415.898	1055.38
416.009	1154.38
416.119	1130.38
416.23	1093.38
416.34	1070.38
416.45	1158.38
416.561	1827.38
416.671	1305.38
416.782	1118.38
416.892	1080.38
417.002	1188.38
417.113	1276.38
417.223	1166.38
417.333	1114.38
417.444	1201.38
417.554	1210.38
417.664	1270.38
417.775	1176.38
417.885	1263.38
417.995	1222.38
418.106	1363.38
418.216	1309.38
418.326	1304.38
418.436	1294.38
418.547	1322.38
418.657	1259.38
418.767	1391.38
418.877	1387.38
418.987	1296.38
419.098	1346.38
419.208	1360.38
419.318	1394.38
419.428	1358.38
419.538	1315.38
419.648	1399.38
419.759	1349.38
419.869	1394.38
419.979	1369.38
420.089	1310.38
420.199	1311.38
420.309	1360.38
420.419	1392.38
420.529	1304.38
420.639	1758.38
420.749	1419.38
420.859	1367.38
420.969	1351.38
421.079	1649.38
421.189	1388.38
421.299	1366.38
421.409	1421.38
421.519	1472.38
421.629	1475.38
421.739	1424.38
421.849	1403.38
421.959	1353.38
422.069	1494.38
422.179	1376.38
422.289	1434.38
422.399	1490.38
422.509	1577.38
422.619	4035.38
422.729	1708.38
422.838	1529.38
422.948	1524.38
423.058	1530.38
423.168	1551.38
423.278	1547.38
423.388	1612.38
423.498	1773.38
423.607	1569.38
423.717	1898.38
423.827	1897.38
423.937	1717.38
424.046	1680.38
424.156	1760.38
424.266	1735.38
424.376	1879.38
424.485	1792.38
424.595	1699.38
424.705	1620.38
424.815	1663.38
424.924	2107.38
425.034	1732.38
425.144	1663.38
425.253	1712.38
425.363	1755.38
425.473	1703.38
425.582	1620.38
425.692	1757.38
425.801	1604.38
425.911	1848.38
426.021	1724.38
426.13	1789.38
426.24	1904.38
426.349	1835.38
426.459	1806.38
426.568	1709.38
426.678	1868.38
426.787	1772.38
426.897	1777.38
427.006	1764.38
427.116	1847.38
427.225	1691.38
427.335	1862.38
427.444	1785.38
427.554	1842.38
427.663	1773.38
427.773	1812.38
427.882	1835.38
427.992	1802.38
428.101	1852.38
428.21	1852.38
428.32	1898.38
428.429	1812.38
428.539	2186.38
428.648	1866.38
428.757	1882.38
428.867	1899.38
428.976	2049.38
429.085	1953.38
429.195	1960.38
429.304	1853.38
429.413	1960.38
429.523	2027.38
429.632	2002.38
429.741	1981.38
429.85	1897.38
429.96	2056.38
430.069	1888.38
430.178	1943.38
430.287	2280.38
430.397	1981.38
430.506	1930.38
430.615	2006.38
430.724	2038.38
430.833	2033.38
430.943	2029.38
431.052	2061.38
431.161	2008.38
431.27	2148.38
431.379	2100.38
431.488	2343.38
431.597	2307.38
431.706	2279.38
431.816	2253.38
431.925	2201.38
432.034	2178.38
432.143	2259.38
432.252	2185.38
432.361	2307.38
432.47	2263.38
432.579	2234.38
432.688	2211.38
432.797	2264.38
432.906	2073.38
433.015	2235.38
433.124	2585.38
433.233	2260.38
433.342	2284.38
433.451	2247.38
433.56	2252.38
433.669	2243.38
433.778	2250.38
433.886	2412.38
433.995	2332.38
434.104	2571.38
434.213	2402.38
434.322	2346.38
434.431	2615.38
434.54	2648.38
434.649	2763.38
434.757	2640.38
434.866	2592.38
434.975	2649.38
435.084	2527.38
435.193	2484.38
435.301	2691.38
435.41	2626.38
435.519	2713.38
435.628	2261.38
435.737	2127.38
435.845	2104.38
435.954	2090.38
436.063	2135.38
436.171	2067.38
436.28	2157.38
436.389	2233.38
436.498	2146.38
436.606	2128.38
436.715	2346.38
436.823	2048.38
436.932	2056.38
437.041	2050.38
437.149	2047.38
437.258	1968.38
437.367	2002.38
437.475	1976.38
437.584	2232.38
437.692	1977.38
437.801	3491.38
437.91	2089.38
438.018	1896.38
438.127	1910.38
438.235	1982.38
438.344	1967.38
438.452	1971.38
438.561	1921.38
438.669	1904.38
438.778	1959.38
438.886	1863.38
438.995	1832.38
439.103	1890.38
439.212	1937.38
439.32	1929.38
439.428	1920.38
439.537	2035.38
439.645	2029.38
439.754	1936.38
439.862	2010.38
439.97	1935.38
440.079	1991.38
440.187	1964.38
440.295	2143.38
440.404	2023.38
440.512	2073.38
440.62	2115.38
440.729	2106.38
440.837	2203.38
440.945	2885.38
441.054	2261.38
441.162	2192.38
441.27	2415.38
441.378	2326.38
441.487	2300.38
441.595	2699.38
441.703	2459.38
441.811	2318.38
441.92	2239.38
442.028	2131.38
442.136	2220.38
442.244	2232.38
442.352	2247.38
442.461	2074.38
442.569	2098.38
442.677	2191.38
442.785	2198.38
442.893	2190.38
443.001	2203.38
443.109	2119.38
443.217	2174.38
443.325	2170.38
443.434	2747.38
443.542	2459.38
443.65	2261.38
443.758	2469.38
443.866	2265.38
443.974	2602.38
444.082	2479.38
444.19	2475.38
444.298	2594.38
444.406	2742.38
444.514	2716.38
444.622	2814.38
444.73	2904.38
444.838	2671.38
444.946	2638.38
445.054	2473.38
445.161	2444.38
445.269	2265.38
445.377	2388.38
445.485	2362.38
445.593	2202.38
445.701	2380.38
445.809	2269.38
445.917	2216.38
446.025	2087.38
446.132	2224.38
446.24	2280.38
446.348	2191.38
446.456	2157.38
446.564	2158.38
446.671	2194.38
446.779	2083.38
446.887	2128.38
446.995	2083.38
447.102	2163.38
447.21	2156.38
447.318	2106.38
447.426	2015.38
447.533	2415.38
447.641	3306.38
447.749	2158.38
447.856	2094.38
447.964	2122.38
448.072	2087.38
448.179	2087.38
448.287	2130.38
448.395	2091.38
448.502	2061.38
448.61	2121.38
448.718	2068.38
448.825	2122.38
448.933	2110.38
449.04	2076.38
449.148	2147.38
449.256	2107.38
449.363	2144.38
449.471	2201.38
449.578	2303.38
449.686	2163.38
449.793	2266.38
449.901	2155.38
450.008	2161.38
450.116	2285.38
450.223	2226.38
450.331	2343.38
450.438	2347.38
450.546	2392.38
450.653	2495.38
450.76	2475.38
450.868	2449.38
450.975	2656.38
451.083	2456.38
451.19	2525.38
451.297	2473.38
451.405	2535.38
451.512	2494.38
451.619	2613.38
451.727	2612.38
451.834	2536.38
451.941	2511.38
452.049	2465.38
452.156	2513.38
452.263	2572.38
452.371	2539.38
452.478	2645.38
452.585	2721.38
452.692	2515.38
452.8	2631.38
452.907	2788.38
453.014	2649.38
453.121	2589.38
453.229	2652.38
453.336	2655.38
453.443	2714.38
453.55	2612.38
453.657	2625.38
453.765	2742.38
453.872	2715.38
453.979	2692.38
454.086	2660.38
454.193	2728.38
454.3	2725.38
454.407	2865.38
454.514	2832.38
454.621	2700.38
454.729	2713.38
454.836	2684.38
454.943	2724.38
455.05	2768.38
455.157	2858.38
455.264	2712.38
455.371	2793.38
455.478	2725.38
455.585	4192.38
455.692	2898.38
455.799	2878.38
455.906	2730.38
456.013	2764.38
456.12	2776.38
456.227	2878.38
456.334	2875.38
456.44	2994.38
456.547	2924.38
456.654	2925.38
456.761	2971.38
456.868	2999.38
456.975	3063.38
457.082	2882.38
457.189	2823.38
457.296	3003.38
457.402	2923.38
457.509	2875.38
457.616	3079.38
457.723	3241.38
457.83	3084.38
457.936	3074.38
458.043	3522.38
458.15	3138.38
458.257	3332.38
458.363	3309.38
458.47	3209.38
458.577	3471.38
458.684	3430.38
458.79	3679.38
458.897	3700.38
459.004	3789.38
459.11	3755.38
459.217	3742.38
459.324	3873.38
459.43	4023.38
459.537	4138.38
459.644	4110.38
459.75	4115.38
459.857	4491.38
459.964	4276.38
460.07	4385.38
460.177	4467.38
460.283	4471.38
460.39	4635.38
460.496	4458.38
460.603	4462.38
460.71	4402.38
460.816	4473.38
460.923	4315.38
461.029	4399.38
461.136	4413.38
461.242	4339.38
461.349	4386.38
461.455	4420.38
461.562	4664.38
461.668	4541.38
461.774	4530.38
461.881	4636.38
461.987	4718.38
462.094	4797.38
462.2	4944.38
462.307	4907.38
462.413	4838.38
462.519	5071.38
462.626	5413.38
462.732	5501.38
462.838	5903.38
462.945	6167.38
463.051	6110.38
463.157	5838.38
463.264	5686.38
463.37	5467.38
463.476	5233.38
463.583	5072.38
463.689	5098.38
463.795	5052.38
463.901	5212.38
464.008	5334.38
464.114	5207.38
464.22	5209.38
464.326	5202.38
464.433	4836.38
464.539	4839.38
464.645	4717.38
464.751	4822.38
464.857	4675.38
464.963	4369.38
465.07	4217.38
465.176	3945.38
465.282	3880.38
465.388	3789.38
465.494	3553.38
465.6	3587.38
465.706	3368.38
465.812	3332.38
465.918	3402.38
466.024	3326.38
466.131	3388.38
466.237	3235.38
466.343	3134.38
466.449	3048.38
466.555	2987.38
466.661	3023.38
466.767	2967.38
466.873	2975.38
466.979	3164.38
467.085	2970.38
467.191	2996.38
467.296	2931.38
467.402	2965.38
467.508	2968.38
467.614	3019.38
467.72	2906.38
467.826	2744.38
467.932	2761.38
468.038	2714.38
468.144	2693.38
468.25	2607.38
468.355	2605.38
468.461	2708.38
468.567	2640.38
468.673	2638.38
468.779	2692.38
468.885	2633.38
468.99	2659.38
469.096	2747.38
469.202	2759.38
469.308	2756.38
469.413	2796.38
469.519	2749.38
469.625	2777.38
469.731	2859.38
469.836	2753.38
469.942	2942.38
470.048	2907.38
470.153	2911.38
470.259	2875.38
470.365	2942.38
470.47	2978.38
470.576	2860.38
470.682	2739.38
470.787	2799.38
470.893	2677.38
470.999	2635.38
471.104	2744.38
471.21	2543.38
471.315	2455.38
471.421	2461.38
471.527	2679.38
471.632	2477.38
471.738	2423.38
471.843	2474.38
471.949	2440.38
472.054	2434.38
472.16	2394.38
472.265	2313.38
472.371	2291.38
472.476	2382.38
472.582	2372.38
472.687	2291.38
472.793	2264.38
472.898	2272.38
473.003	2187.38
473.109	2216.38
473.214	2159.38
473.32	2172.38
473.425	2152.38
473.53	2213.38
473.636	2116.38
473.741	2143.38
473.847	2193.38
473.952	2170.38
474.057	2184.38
474.163	2256.38
474.268	2198.38
474.373	2248.38
474.478	2115.38
474.584	2135.38
474.689	2196.38
474.794	2228.38
474.9	2480.38
475.005	2135.38
475.11	2352.38
475.215	2203.38
475.321	2199.38
475.426	2300.38
475.531	2322.38
475.636	2196.38
475.741	2116.38
475.846	2303.38
475.952	2440.38
476.057	2268.38
476.162	2253.38
476.267	2456.38
476.372	2583.38
476.477	2225.38
476.582	2442.38
476.687	2169.38
476.793	2252.38
476.898	2306.38
477.003	2320.38
477.108	2335.38
477.213	2330.38
477.318	2373.38
477.423	2466.38
477.528	2539.38
477.633	2609.38
477.738	2529.38
477.843	2539.38
477.948	2623.38
478.053	2624.38
478.158	2555.38
478.263	2705.38
478.368	2669.38
478.473	2732.38
478.578	2772.38
478.682	2708.38
478.787	2863.38
478.892	2738.38
478.997	2932.38
479.102	2746.38
479.207	2759.38
479.312	2929.38
479.417	2737.38
479.521	2749.38
479.626	2907.38
479.731	2877.38
479.836	2871.38
479.941	3054.38
480.045	3077.38
480.15	3107.38
480.255	3137.38
480.36	3163.38
480.465	3063.38
480.569	3115.38
480.674	2949.38
480.779	2839.38
480.883	2850.38
480.988	2926.38
481.093	2886.38
481.197	2800.38
481.302	2804.38
481.407	2824.38
481.511	3978.38
481.616	2765.38
481.721	2822.38
481.825	2944.38
481.93	2747.38
482.035	2744.38
482.139	2852.38
482.244	2839.38
482.348	2795.38
482.453	2848.38
482.557	2903.38
482.662	2871.38
482.767	2923.38
482.871	2850.38
482.976	2877.38
483.08	2960.38
483.185	3042.38
483.289	2935.38
483.394	2994.38
483.498	3063.38
483.603	2946.38
483.707	2996.38
483.811	3065.38
483.916	3149.38
484.02	3082.38
484.125	3222.38
484.229	3128.38
484.333	3325.38
484.438	3206.38
484.542	3139.38
484.647	3131.38
484.751	3302.38
484.855	3269.38
484.96	3288.38
485.064	3419.38
485.168	3409.38
485.273	3370.38
485.377	3403.38
485.481	3705.38
485.585	3437.38
485.69	3506.38
485.794	3535.38
485.898	3540.38
486.002	3572.38
486.107	3564.38
486.211	3492.38
486.315	3533.38
486.419	3580.38
486.524	3585.38
486.628	3511.38
486.732	3504.38
486.836	3660.38
486.94	3501.38
487.044	3515.38
487.148	3615.38
487.253	3522.38
487.357	3564.38
487.461	3684.38
487.565	3519.38
487.669	3531.38
487.773	3515.38
487.877	3608.38
487.981	3533.38
488.085	3537.38
488.189	3570.38
488.293	3658.38
488.397	3969.38
488.501	3651.38
488.605	3484.38
488.709	3528.38
488.813	3579.38
488.917	3529.38
489.021	3463.38
489.125	3826.38
489.229	3494.38
489.333	3711.38
489.437	3624.38
489.541	3683.38
489.645	3592.38
489.749	3630.38
489.853	3689.38
489.956	3568.38
490.06	3661.38
490.164	3676.38
490.268	3585.38
490.372	3623.38
490.476	3618.38
490.579	3616.38
490.683	4274.38
490.787	3730.38
490.891	3651.38
490.995	3578.38
491.098	3640.38
491.202	3665.38
491.306	3646.38
491.41	3600.38
491.513	3572.38
491.617	3589.38
491.721	3849.38
491.824	3851.38
491.928	3671.38
492.032	3883.38
492.136	3736.38
492.239	3660.38
492.343	3575.38
492.446	4035.38
492.55	3727.38
492.654	3633.38
492.757	3575.38
492.861	3757.38
492.965	3629.38
493.068	3627.38
493.172	3705.38
493.275	3664.38
493.379	3651.38
493.482	3756.38
493.586	3805.38
493.689	3881.38
493.793	3738.38
493.896	3876.38
494	3768.38
494.103	3793.38
494.207	4104.38
494.31	4065.38
494.414	3751.38
494.517	3687.38
494.621	3654.38
494.724	3567.38
494.828	3535.38
494.931	3721.38
495.034	3568.38
495.138	3763.38
495.241	3594.38
495.345	4443.38
495.448	3710.38
495.551	3659.38
495.655	3612.38
495.758	3593.38
495.861	3592.38
495.965	3658.38
496.068	3662.38
496.171	3739.38
496.274	3788.38
496.378	3629.38
496.481	3687.38
496.584	3733.38
496.687	3725.38
496.791	3747.38
496.894	3812.38
496.997	3709.38
497.1	3762.38
497.204	3893.38
497.307	3803.38
497.41	4022.38
497.513	4187.38
497.616	4061.38
497.719	3976.38
497.823	4081.38
497.926	4208.38
498.029	4241.38
498.132	4363.38
498.235	4618.38
498.338	4699.38
498.441	4815.38
498.544	4871.38
498.647	5178.38
498.75	5307.38
498.853	5620.38
498.956	5752.38
499.059	6062.38
499.163	6094.38
499.266	6466.38
499.369	6757.38
499.471	7015.38
499.574	7705.38
499.677	7904.38
499.78	8395.38
499.883	8996.38
499.986	9769.38
500.089	10121.38
500.192	10333.38
500.295	10395.38
500.398	10284.38
500.501	9955.38
500.604	9576.38
500.707	9061.38
500.809	8675.38
500.912	8272.38
501.015	7798.38
501.118	7102.38
501.221	6794.38
501.324	6389.38
501.426	5967.38
501.529	5551.38
501.632	5536.38
501.735	5131.38
501.837	4896.38
501.94	4879.38
502.043	4641.38
502.146	4552.38
502.248	4474.38
502.351	4332.38
502.454	4244.38
502.557	4168.38
502.659	4140.38
502.762	3789.38
502.865	3821.38
502.967	3727.38
503.07	3694.38
503.173	3687.38
503.275	3561.38
503.378	3431.38
503.48	3420.38
503.583	3480.38
503.686	3462.38
503.788	3699.38
503.891	3449.38
503.993	3749.38
504.096	3414.38
504.198	3540.38
504.301	3565.38
504.403	3528.38
504.506	3518.38
504.608	3503.38
504.711	3280.38
504.813	3292.38
504.916	3207.38
505.018	3016.38
505.121	2900.38
505.223	2998.38
505.326	2888.38
505.428	2879.38
505.531	2800.38
505.633	2832.38
505.735	2618.38
505.838	2632.38
505.94	2783.38
506.042	2567.38
506.145	2596.38
506.247	2733.38
506.35	2625.38
506.452	2658.38
506.554	2622.38
506.656	2615.38
506.759	2500.38
506.861	2523.38
506.963	2634.38
507.066	2554.38
507.168	2627.38
507.27	2518.38
507.372	2475.38
507.475	2468.38
507.577	2568.38
507.679	2471.38
507.781	2320.38
507.883	2428.38
507.986	2405.38
508.088	2395.38
508.19	2381.38
508.292	2464.38
508.394	2350.38
508.496	2306.38
508.598	2362.38
508.701	2334.38
508.803	2338.38
508.905	2388.38
509.007	2322.38
509.109	2352.38
509.211	2435.38
509.313	2366.38
509.415	2175.38
509.517	2313.38
509.619	2312.38
509.721	2315.38
509.823	2254.38
509.925	2487.38
510.027	2348.38
510.129	2337.38
510.231	2353.38
510.333	2270.38
510.435	2247.38
510.537	2316.38
510.639	2332.38
510.741	2284.38
510.843	2425.38
510.945	2327.38
511.047	2356.38
511.148	2348.38
511.25	2253.38
511.352	2290.38
511.454	2160.38
511.556	2392.38
511.658	2299.38
511.76	2348.38
511.861	2443.38
511.963	2298.38
512.065	2268.38
512.167	2191.38
512.268	2462.38
512.37	2344.38
512.472	2266.38
512.574	2387.38
512.676	2352.38
512.777	2307.38
512.879	2356.38
512.981	2297.38
513.082	2364.38
513.184	2359.38
513.286	2819.38
513.387	2415.38
513.489	2493.38
513.591	2440.38
513.692	2424.38
513.794	2384.38
513.896	2335.38
513.997	2228.38
514.099	2325.38
514.2	2497.38
514.302	2413.38
514.404	2354.38
514.505	2379.38
514.607	2532.38
514.708	2472.38
514.81	2481.38
514.911	2531.38
515.013	2567.38
515.114	2509.38
515.216	2626.38
515.317	2596.38
515.419	2585.38
515.52	2688.38
515.622	2618.38
515.723	2626.38
515.825	2780.38
515.926	2742.38
516.027	2703.38
516.129	2811.38
516.23	2919.38
516.332	2906.38
516.433	3019.38
516.534	3067.38
516.636	3075.38
516.737	3128.38
516.838	4385.38
516.94	3511.38
517.041	3504.38
517.142	3655.38
517.244	3812.38
517.345	3611.38
517.446	3778.38
517.547	3881.38
517.649	3751.38
517.75	3723.38
517.851	3712.38
517.952	3970.38
518.054	3689.38
518.155	3767.38
518.256	3435.38
518.357	3506.38
518.458	3303.38
518.56	3229.38
518.661	3232.38
518.762	3188.38
518.863	3358.38
518.964	3164.38
519.065	3017.38
519.166	3067.38
519.268	2914.38
519.369	3142.38
519.47	2944.38
519.571	2956.38
519.672	2745.38
519.773	2816.38
519.874	2891.38
519.975	2854.38
520.076	2786.38
520.177	2949.38
520.278	2784.38
520.379	2775.38
520.48	2762.38
520.581	2670.38
520.682	2763.38
520.783	2694.38
520.884	2760.38
520.985	2746.38
521.086	2725.38
521.187	2762.38
521.288	2684.38
521.389	2692.38
521.489	2715.38
521.59	2623.38
521.691	2661.38
521.792	2664.38
521.893	2720.38
521.994	2833.38
522.095	2803.38
522.195	2780.38
522.296	2805.38
522.397	2844.38
522.498	2747.38
522.599	2604.38
522.699	2691.38
522.8	2793.38
522.901	2776.38
523.002	2639.38
523.102	2982.38
523.203	2684.38
523.304	2830.38
523.405	2752.38
523.505	2687.38
523.606	2702.38
523.707	2731.38
523.807	2699.38
523.908	2739.38
524.009	2767.38
524.109	2743.38
524.21	2640.38
524.31	2832.38
524.411	2905.38
524.512	2835.38
524.612	2712.38
524.713	2914.38
524.813	2687.38
524.914	2936.38
525.014	8526.38
525.115	3203.38
525.216	2702.38
525.316	2728.38
525.417	2761.38
525.517	2702.38
525.618	2667.38
525.718	2698.38
525.819	2601.38
525.919	2703.38
526.019	2709.38
526.12	2812.38
526.22	2639.38
526.321	2679.38
526.421	2677.38
526.522	2665.38
526.622	2604.38
526.722	2750.38
526.823	2748.38
526.923	2685.38
527.023	2822.38
527.124	2695.38
527.224	2848.38
527.324	2675.38
527.425	2674.38
527.525	2562.38
527.625	2683.38
527.726	2826.38
527.826	2763.38
527.926	2725.38
528.026	2791.38
528.127	2747.38
528.227	2751.38
528.327	2906.38
528.427	2732.38
528.528	2793.38
528.628	2760.38
528.728	2749.38
528.828	2818.38
528.928	2833.38
529.029	2727.38
529.129	2810.38
529.229	2775.38
529.329	2747.38
529.429	2854.38
529.529	2858.38
529.629	2881.38
529.729	2718.38
529.829	2883.38
529.93	2738.38
530.03	2742.38
530.13	2715.38
530.23	2718.38
530.33	2785.38
530.43	2677.38
530.53	2760.38
530.63	2753.38
530.73	2631.38
530.83	2604.38
530.93	2719.38
531.03	2579.38
531.13	2761.38
531.23	2634.38
531.33	2688.38
531.429	2758.38
531.529	2956.38
531.629	2713.38
531.729	2591.38
531.829	2592.38
531.929	2705.38
532.029	2624.38
532.129	2659.38
532.229	2685.38
532.328	2649.38
532.428	2644.38
532.528	2565.38
532.628	2579.38
532.728	2568.38
532.827	2554.38
532.927	2651.38
533.027	2641.38
533.127	2681.38
533.227	2683.38
533.326	2596.38
533.426	2536.38
533.526	2637.38
533.625	2698.38
533.725	2847.38
533.825	2623.38
533.924	2555.38
534.024	2455.38
534.124	2488.38
534.223	2567.38
534.323	2859.38
534.423	2469.38
534.522	2552.38
534.622	2428.38
534.722	2542.38
534.821	2503.38
534.921	2392.38
535.02	2376.38
535.12	2568.38
535.219	2598.38
535.319	2461.38
535.419	2492.38
535.518	2373.38
535.618	2349.38
535.717	2395.38
535.817	2384.38
535.916	2249.38
536.016	2395.38
536.115	2291.38
536.215	2240.38
536.314	2226.38
536.413	2164.38
536.513	2219.38
536.612	2175.38
536.712	2146.38
536.811	2220.38
536.91	2151.38
537.01	2198.38
537.109	2319.38
537.209	2160.38
537.308	2164.38
537.407	2299.38
537.507	2228.38
537.606	2137.38
537.705	2204.38
537.805	2140.38
537.904	2092.38
538.003	2160.38
538.102	2215.38
538.202	2195.38
538.301	2216.38
538.4	2295.38
538.499	2145.38
538.599	2132.38
538.698	2378.38
538.797	2117.38
538.896	2217.38
538.995	2213.38
539.095	2106.38
539.194	2312.38
539.293	2123.38
539.392	2066.38
539.491	2043.38
539.59	2059.38
539.689	2220.38
539.789	2154.38
539.888	2018.38
539.987	1991.38
540.086	2032.38
540.185	2066.38
540.284	2117.38
540.383	2062.38
540.482	1982.38
540.581	2086.38
540.68	2098.38
540.779	2050.38
540.878	2069.38
540.977	2161.38
541.076	2054.38
541.175	2125.38
541.274	2338.38
541.373	2084.38
541.472	2065.38
541.571	2061.38
541.67	3394.38
541.769	2159.38
541.868	2006.38
541.966	2103.38
542.065	1972.38
542.164	2085.38
542.263	2024.38
542.362	2015.38
542.461	2105.38
542.56	2068.38
542.658	2007.38
542.757	1860.38
542.856	1951.38
542.955	1984.38
543.054	1897.38
543.152	2098.38
543.251	2007.38
543.35	2095.38
543.449	2039.38
543.547	1991.38
543.646	1907.38
543.745	1951.38
543.843	2131.38
543.942	2032.38
544.041	2008.38
544.14	2043.38
544.238	1977.38
544.337	2200.38
544.436	2076.38
544.534	2171.38
544.633	2084.38
544.731	2017.38
544.83	2138.38
544.929	2012.38
545.027	2119.38
545.126	2057.38
545.224	2205.38
545.323	2012.38
545.421	2036.38
545.52	2096.38
545.619	2062.38
545.717	2034.38
545.816	2201.38
545.914	2095.38
546.013	2253.38
546.111	2271.38
546.209	2017.38
546.308	1987.38
546.406	2082.38
546.505	2183.38
546.603	2052.38
546.702	1957.38
546.8	1993.38
546.899	2065.38
546.997	2091.38
547.095	2065.38
547.194	2054.38
547.292	2055.38
547.39	2140.38
547.489	2043.38
547.587	2339.38
547.685	2095.38
547.784	2267.38
547.882	2101.38
547.98	2004.38
548.079	2087.38
548.177	2003.38
548.275	2018.38
548.373	2272.38
548.472	2017.38
548.57	2093.38
548.668	2220.38
548.766	1938.38
548.864	2140.38
548.963	2044.38
549.061	2161.38
549.159	1987.38
549.257	2143.38
549.355	2065.38
549.454	2071.38
549.552	2190.38
549.65	2145.38
549.748	2081.38
549.846	2073.38
549.944	2124.38
550.042	2042.38
550.14	1995.38
550.238	2108.38
550.336	1968.38
550.434	1867.38
550.532	1995.38
550.631	2058.38
550.729	2008.38
550.827	2061.38
550.925	2024.38
551.023	1968.38
551.121	1937.38
551.218	2064.38
551.316	1927.38
551.414	1935.38
551.512	1955.38
551.61	1961.38
551.708	2043.38
551.806	2135.38
551.904	2019.38
552.002	2030.38
552.1	2081.38
552.198	2100.38
552.296	2224.38
552.393	2259.38
552.491	2349.38
552.589	2275.38
552.687	2339.38
552.785	2306.38
552.882	2380.38
552.98	2543.38
553.078	2480.38
553.176	2456.38
553.274	2321.38
553.371	2344.38
553.469	2409.38
553.567	2302.38
553.665	2213.38
553.762	2719.38
553.86	2330.38
553.958	2228.38
554.055	2250.38
554.153	2289.38
554.251	2166.38
554.348	2183.38
554.446	2116.38
554.544	2069.38
554.641	2390.38
554.739	2189.38
554.837	2098.38
554.934	2064.38
555.032	2029.38
555.129	1963.38
555.227	2231.38
555.324	6055.38
555.422	2295.38
555.519	1972.38
555.617	1900.38
555.715	1865.38
555.812	2328.38
555.91	1880.38
556.007	1976.38
556.105	1900.38
556.202	1925.38
556.299	1838.38
556.397	1869.38
556.494	1885.38
556.592	1892.38
556.689	1884.38
556.787	1827.38
556.884	1851.38
556.981	1795.38
557.079	1727.38
557.176	1907.38
557.273	1892.38
557.371	1906.38
557.468	1871.38
557.566	1946.38
557.663	1753.38
557.76	1890.38
557.857	1892.38
557.955	1901.38
558.052	1940.38
558.149	2024.38
558.247	1987.38
558.344	1829.38
558.441	1820.38
558.538	1874.38
558.636	1879.38
558.733	1881.38
558.83	1923.38
558.927	1799.38
559.024	1846.38
559.122	1827.38
559.219	1814.38
559.316	1880.38
559.413	2015.38
559.51	1847.38
559.607	1826.38
559.704	1921.38
559.801	1921.38
559.899	1713.38
559.996	2090.38
560.093	1950.38
560.19	1810.38
560.287	1912.38
560.384	2116.38
560.481	1813.38
560.578	1810.38
560.675	1855.38
560.772	1946.38
560.869	1871.38
560.966	2061.38
561.063	1904.38
561.16	1968.38
561.257	1924.38
561.354	1946.38
561.451	1843.38
561.548	1892.38
561.645	2182.38
561.742	1890.38
561.838	1858.38
561.935	1897.38
562.032	1894.38
562.129	1884.38
562.226	1860.38
562.323	1924.38
562.42	2009.38
562.516	1974.38
562.613	1967.38
562.71	1986.38
562.807	2675.38
562.904	2034.38
563	1962.38
563.097	1977.38
563.194	1999.38
563.291	1930.38
563.387	1942.38
563.484	1962.38
563.581	2007.38
563.678	1917.38
563.774	2413.38
563.871	2099.38
563.968	2047.38
564.064	2055.38
564.161	2078.38
564.258	1971.38
564.354	2140.38
564.451	2122.38
564.548	2221.38
564.644	2138.38
564.741	2141.38
564.837	2160.38
564.934	2126.38
565.031	2185.38
565.127	2307.38
565.224	2309.38
565.32	2484.38
565.417	2446.38
565.513	2403.38
565.61	2536.38
565.706	2636.38
565.803	2683.38
565.899	2603.38
565.996	2880.38
566.092	2911.38
566.189	2937.38
566.285	3070.38
566.382	3254.38
566.478	3303.38
566.574	3544.38
566.671	3479.38
566.767	3391.38
566.864	3365.38
566.96	3468.38
567.056	3403.38
567.153	3773.38
567.249	3774.38
567.345	3800.38
567.442	4013.38
567.538	4030.38
567.634	4059.38
567.731	4143.38
567.827	4128.38
567.923	4152.38
568.019	3788.38
568.116	3617.38
568.212	3442.38
568.308	3368.38
568.404	3183.38
568.501	3022.38
568.597	3016.38
568.693	2765.38
568.789	3371.38
568.885	2663.38
568.982	2611.38
569.078	2434.38
569.174	2521.38
569.27	2290.38
569.366	2333.38
569.462	2278.38
569.558	2206.38
569.655	2178.38
569.751	2141.38
569.847	2093.38
569.943	2156.38
570.039	2024.38
570.135	2597.38
570.231	2132.38
570.327	2236.38
570.423	2180.38
570.519	2146.38
570.615	2050.38
570.711	2252.38
570.807	2221.38
570.903	2077.38
570.999	2123.38
571.095	2185.38
571.191	2095.38
571.287	2065.38
571.383	2134.38
571.479	1972.38
571.574	2057.38
571.67	1996.38
571.766	2126.38
571.862	1889.38
571.958	1908.38
572.054	1960.38
572.15	1772.38
572.246	1780.38
572.341	1879.38
572.437	1759.38
572.533	1829.38
572.629	1799.38
572.725	1748.38
572.82	1685.38
572.916	1865.38
573.012	1715.38
573.108	1801.38
573.203	1708.38
573.299	1661.38
573.395	1624.38
573.49	1623.38
573.586	1683.38
573.682	1632.38
573.778	1851.38
573.873	1678.38
573.969	1587.38
574.065	1606.38
574.16	1691.38
574.256	1677.38
574.351	1728.38
574.447	1623.38
574.543	1716.38
574.638	1728.38
574.734	1654.38
574.829	1884.38
574.925	1652.38
575.02	1593.38
575.116	1650.38
575.212	1586.38
575.307	1747.38
575.403	1612.38
575.498	1652.38
575.594	1575.38
575.689	1620.38
575.784	1555.38
575.88	1585.38
575.975	1634.38
576.071	1561.38
576.166	1467.38
576.262	1561.38
576.357	1568.38
576.452	1646.38
576.548	1546.38
576.643	1524.38
576.739	1544.38
576.834	1576.38
576.929	1513.38
577.025	1664.38
577.12	1414.38
577.215	1415.38
577.311	1528.38
577.406	1533.38
577.501	1634.38
577.597	1455.38
577.692	1622.38
577.787	1587.38
577.882	1446.38
577.978	1449.38
578.073	1422.38
578.168	1459.38
578.263	1392.38
578.358	1385.38
578.454	1336.38
578.549	1331.38
578.644	1329.38
578.739	1394.38
578.834	1324.38
578.929	1304.38
579.025	1323.38
579.12	1448.38
579.215	1549.38
579.31	1539.38
579.405	1355.38
579.5	1396.38
579.595	1295.38
579.69	1228.38
579.785	1330.38
579.88	1281.38
579.975	1301.38
580.07	1288.38
580.165	1322.38
580.26	1389.38
580.355	1313.38
580.45	1229.38
580.545	1223.38
580.64	1319.38
580.735	1348.38
580.83	1261.38
580.925	1236.38
581.02	1235.38
581.115	1174.38
581.21	1138.38
581.305	1299.38
581.4	1284.38
581.495	1208.38
581.589	1271.38
581.684	1095.38
581.779	1312.38
581.874	1280.38
581.969	1339.38
582.064	1195.38
582.158	1228.38
582.253	1168.38
582.348	1147.38
582.443	1223.38
582.537	1226.38
582.632	1372.38
582.727	1204.38
582.822	1183.38
582.916	1167.38
583.011	1158.38
583.106	1214.38
583.201	1097.38
583.295	1186.38
583.39	1139.38
583.485	1106.38
583.579	2629.38
583.674	1324.38
583.769	1431.38
583.863	1164.38
583.958	1130.38
584.052	1093.38
584.147	1118.38
584.242	1039.38
584.336	1160.38
584.431	1261.38
584.525	1089.38
584.62	1262.38
584.714	1215.38
584.809	1147.38
584.903	1119.38
584.998	1173.38
585.092	1069.38
585.187	1103.38
585.281	1116.38
585.376	1098.38
585.47	1120.38
585.565	1113.38
585.659	1011.38
585.754	1080.38
585.848	1132.38
585.942	1101.38
586.037	1007.38
586.131	3442.38
586.226	1221.38
586.32	1066.38
586.414	967.38
586.509	1204.38
586.603	1105.38
586.697	1016.38
586.792	1009.38
586.886	1019.38
586.98	1128.38
587.075	1083.38
587.169	1043.38
587.263	1177.38
587.357	1069.38
587.452	1002.38
587.546	1123.38
587.64	972.38
587.734	1093.38
587.829	1069.38
587.923	1032.38
588.017	1083.38
588.111	1036.38
588.205	1143.38
588.3	1059.38
588.394	1018.38
588.488	1048.38
588.582	1169.38
588.676	1307.38
588.77	1991.38
588.864	3967.38
588.958	4109.38
589.052	2880.38
589.147	1981.38
589.241	1577.38
589.335	1540.38
589.429	2664.38
589.523	3213.38
589.617	2737.38
589.711	1843.38
589.805	1426.38
589.899	1319.38
589.993	1066.38
590.087	987.38
590.181	1049.38
590.275	1018.38
590.369	993.38
590.462	1019.38
590.556	951.38
590.65	913.38
590.744	999.38
590.838	1027.38
590.932	1042.38
591.026	1068.38
591.12	1209.38
591.214	1037.38
591.307	1044.38
591.401	1098.38
591.495	1099.38
591.589	980.38
591.683	1067.38
591.777	1119.38
591.87	1456.38
591.964	1155.38
592.058	1044.38
592.152	1134.38
592.245	1079.38
592.339	1194.38
592.433	1258.38
592.527	1205.38
592.62	1178.38
592.714	1203.38
592.808	1267.38
592.901	1325.38
592.995	1204.38
593.089	1525.38
593.182	1308.38
593.276	1221.38
593.37	1145.38
593.463	1156.38
593.557	1232.38
593.65	1197.38
593.744	1279.38
593.837	1375.38
593.931	1250.38
594.025	5110.38
594.118	1652.38
594.212	1233.38
594.305	1204.38
594.399	1229.38
594.492	1489.38
594.586	1168.38
594.679	1085.38
594.773	1098.38
594.866	1076.38
594.96	1103.38
595.053	1078.38
595.146	1033.38
595.24	956.38
595.333	1017.38
595.427	936.38
595.52	930.38
595.614	1116.38
595.707	953.38
595.8	909.38
595.894	941.38
595.987	908.38
596.08	829.38
596.174	1255.38
596.267	1041.38
596.36	992.38
596.454	1043.38
596.547	991.38
596.64	911.38
596.733	808.38
596.827	966.38
596.92	881.38
597.013	788.38
597.106	761.38
597.2	802.38
597.293	755.38
597.386	1041.38
597.479	836.38
597.572	824.38
597.666	779.38
597.759	830.38
597.852	877.38
597.945	713.38
598.038	815.38
598.131	791.38
598.224	764.38
598.317	863.38
598.411	844.38
598.504	706.38
598.597	846.38
598.69	825.38
598.783	753.38
598.876	795.38
598.969	844.38
599.062	690.38
599.155	834.38
599.248	801.38
599.341	799.38
599.434	706.38
599.527	874.38
599.62	740.38
599.713	690.38
599.806	825.38
599.899	1007.38
599.991	749.38
600.084	939.38
600.177	787.38
600.27	700.38
600.363	951.38
600.456	756.38
600.549	798.38
600.642	674.38
600.734	706.38
600.827	748.38
600.92	878.38
601.013	732.38
601.106	864.38
601.199	754.38
601.291	688.38
601.384	781.38
601.477	932.38
601.57	813.38
601.662	741.38
601.755	756.38
601.848	717.38
601.94	759.38
602.033	894.38
602.126	773.38
602.219	697.38
602.311	901.38
602.404	787.38
602.497	729.38
602.589	751.38
602.682	752.38
602.774	747.38
602.867	805.38
602.96	729.38
603.052	771.38
603.145	686.38
603.237	760.38
603.33	716.38
603.422	855.38
603.515	704.38
603.608	707.38
603.7	751.38
603.793	731.38
603.885	758.38
603.978	703.38
604.07	734.38
604.163	701.38
604.255	706.38
604.347	705.38
604.44	696.38
604.532	687.38
604.625	645.38
604.717	682.38
604.81	673.38
604.902	694.38
604.994	700.38
605.087	679.38
605.179	664.38
605.271	736.38
605.364	699.38
605.456	720.38
605.548	750.38
605.641	685.38
605.733	665.38
605.825	709.38
605.918	682.38
606.01	864.38
606.102	1119.38
606.194	808.38
606.287	854.38
606.379	678.38
606.471	755.38
606.563	751.38
606.655	759.38
606.748	773.38
606.84	682.38
606.932	745.38
607.024	640.38
607.116	695.38
607.208	658.38
607.301	728.38
607.393	716.38
607.485	715.38
607.577	729.38
607.669	773.38
607.761	731.38
607.853	975.38
607.945	648.38
608.037	658.38
608.129	676.38
608.221	686.38
608.313	675.38
608.405	732.38
608.497	671.38
608.589	659.38
608.681	622.38
608.773	695.38
608.865	708.38
608.957	722.38
609.049	636.38
609.141	782.38
609.233	684.38
609.325	587.38
609.417	606.38
609.509	768.38
609.601	810.38
609.693	733.38
609.784	716.38
609.876	660.38
609.968	716.38
610.06	3225.38
610.152	932.38
610.244	910.38
610.335	676.38
610.427	688.38
610.519	667.38
610.611	681.38
610.702	683.38
610.794	667.38
610.886	737.38
610.978	717.38
611.069	1132.38
611.161	700.38
611.253	746.38
611.344	639.38
611.436	569.38
611.528	714.38
611.62	586.38
611.711	615.38
611.803	550.38
611.894	580.38
611.986	542.38
612.078	609.38
612.169	635.38
612.261	564.38
612.352	543.38
612.444	559.38
612.536	650.38
612.627	546.38
612.719	497.38
612.81	508.38
612.902	413.38
612.993	515.38
613.085	513.38
613.176	397.38
613.268	501.38
613.359	484.38
613.451	439.38
613.542	476.38
613.634	481.38
613.725	496.38
613.816	517.38
613.908	443.38
613.999	404.38
614.091	340.38
614.182	322.38
614.273	424.38
614.365	331.38
614.456	285.38
614.547	353.38
614.639	255.38
614.73	317.38
614.821	454.38
614.913	254.38
615.004	223.38
615.095	249.38
615.187	236.38
