Data from 21g_HRC06701__81__325.txt Node

Date: Thu Apr 18 02:09:00 CDT 2024
User: Estudiantes 2
Spectrometer: HR+C0670
Trigger mode: 4
Integration Time (sec): 1.000000E0
Scans to average: 1
Electric dark correction enabled: true
Nonlinearity correction enabled: false
Boxcar width: 0
XAxis mode: Wavelengths
Number of Pixels in Spectrum: 2048
>>>>>Begin Spectral Data<<<<<
407.81	-122.12
407.921	-122.12
408.032	-122.12
408.143	-113.12
408.254	-165.12
408.365	41.88
408.476	301.88
408.587	-25.12
408.699	-18.12
408.81	38.88
408.921	-89.12
409.032	-40.12
409.143	83.88
409.254	-9.12
409.365	73.88
409.476	-38.12
409.587	29.88
409.698	49.88
409.809	120.88
409.92	-20.12
410.031	-34.12
410.142	61.88
410.253	58.88
410.364	24.88
410.475	1206.88
410.585	6060.88
410.696	6378.88
410.807	6226.88
410.918	6259.88
411.029	6436.88
411.14	6392.88
411.251	6396.88
411.362	6520.88
411.472	6471.88
411.583	6478.88
411.694	6772.88
411.805	6610.88
411.916	6748.88
412.026	6693.88
412.137	6591.88
412.248	6595.88
412.359	6601.88
412.47	6412.88
412.58	6299.88
412.691	6522.88
412.802	6326.88
412.912	6317.88
413.023	6331.88
413.134	6415.88
413.245	6394.88
413.355	6349.88
413.466	6390.88
413.577	6246.88
413.687	6418.88
413.798	6269.88
413.909	6452.88
414.019	6390.88
414.13	6603.88
414.24	6480.88
414.351	6551.88
414.462	6817.88
414.572	6629.88
414.683	6641.88
414.793	6662.88
414.904	6866.88
415.014	6419.88
415.125	6411.88
415.235	6498.88
415.346	6663.88
415.456	6591.88
415.567	6529.88
415.677	6518.88
415.788	6452.88
415.898	6336.88
416.009	6354.88
416.119	6444.88
416.23	6543.88
416.34	6416.88
416.45	6403.88
416.561	7234.88
416.671	6582.88
416.782	6426.88
416.892	6628.88
417.002	6603.88
417.113	6885.88
417.223	6606.88
417.333	6695.88
417.444	6743.88
417.554	6757.88
417.664	6913.88
417.775	6763.88
417.885	7015.88
417.995	6929.88
418.106	7212.88
418.216	7164.88
418.326	7287.88
418.436	7467.88
418.547	7386.88
418.657	7468.88
418.767	7600.88
418.877	7690.88
418.987	7563.88
419.098	7541.88
419.208	7649.88
419.318	7532.88
419.428	7607.88
419.538	7490.88
419.648	7682.88
419.759	7511.88
419.869	7428.88
419.979	7634.88
420.089	7649.88
420.199	7592.88
420.309	7567.88
420.419	7607.88
420.529	7674.88
420.639	8074.88
420.749	7723.88
420.859	7707.88
420.969	7828.88
421.079	7995.88
421.189	7712.88
421.299	7700.88
421.409	7646.88
421.519	7834.88
421.629	8027.88
421.739	7964.88
421.849	8084.88
421.959	8070.88
422.069	8159.88
422.179	8286.88
422.289	8241.88
422.399	8515.88
422.509	8654.88
422.619	11034.88
422.729	8882.88
422.838	8672.88
422.948	8715.88
423.058	8887.88
423.168	8975.88
423.278	8976.88
423.388	9191.88
423.498	9507.88
423.607	9346.88
423.717	9563.88
423.827	9768.88
423.937	9531.88
424.046	9394.88
424.156	9667.88
424.266	9687.88
424.376	9748.88
424.485	9729.88
424.595	9665.88
424.705	9620.88
424.815	9717.88
424.924	10193.88
425.034	9680.88
425.144	9611.88
425.253	9733.88
425.363	9935.88
425.473	9792.88
425.582	9617.88
425.692	9846.88
425.801	9779.88
425.911	10042.88
426.021	10000.88
426.13	10111.88
426.24	10358.88
426.349	10282.88
426.459	10149.88
426.568	10160.88
426.678	10270.88
426.787	10379.88
426.897	10237.88
427.006	10282.88
427.116	10347.88
427.225	10360.88
427.335	10548.88
427.444	10479.88
427.554	10535.88
427.663	10538.88
427.773	10554.88
427.882	10802.88
427.992	10612.88
428.101	10837.88
428.21	10804.88
428.32	10941.88
428.429	10923.88
428.539	11334.88
428.648	10984.88
428.757	10983.88
428.867	11146.88
428.976	11406.88
429.085	11189.88
429.195	11330.88
429.304	11233.88
429.413	11387.88
429.523	11472.88
429.632	11323.88
429.741	11585.88
429.85	11318.88
429.96	11744.88
430.069	11613.88
430.178	11675.88
430.287	11998.88
430.397	11862.88
430.506	11758.88
430.615	11923.88
430.724	12066.88
430.833	11878.88
430.943	12089.88
431.052	12181.88
431.161	12270.88
431.27	12536.88
431.379	12519.88
431.488	13097.88
431.597	13080.88
431.706	13186.88
431.816	13180.88
431.925	13036.88
432.034	12985.88
432.143	12961.88
432.252	12699.88
432.361	12879.88
432.47	12909.88
432.579	12839.88
432.688	12861.88
432.797	13012.88
432.906	12775.88
433.015	13136.88
433.124	13364.88
433.233	13260.88
433.342	13026.88
433.451	13340.88
433.56	13291.88
433.669	13244.88
433.778	13313.88
433.886	13518.88
433.995	13465.88
434.104	13878.88
434.213	14115.88
434.322	14159.88
434.431	14568.88
434.54	14568.88
434.649	14568.88
434.757	14568.88
434.866	14568.88
434.975	14568.88
435.084	14330.88
435.193	14120.88
435.301	14016.88
435.41	13815.88
435.519	13808.88
435.628	12932.88
435.737	12888.88
435.845	12775.88
435.954	12566.88
436.063	12403.88
436.171	12703.88
436.28	12532.88
436.389	12808.88
436.498	12405.88
436.606	12532.88
436.715	12663.88
436.823	12171.88
436.932	12100.88
437.041	11907.88
437.149	11739.88
437.258	11654.88
437.367	11575.88
437.475	11712.88
437.584	11912.88
437.692	11491.88
437.801	13211.88
437.91	11338.88
438.018	11368.88
438.127	11359.88
438.235	11424.88
438.344	11581.88
438.452	11342.88
438.561	11234.88
438.669	11202.88
438.778	11063.88
438.886	11232.88
438.995	11231.88
439.103	11343.88
439.212	11442.88
439.32	11498.88
439.428	11316.88
439.537	11384.88
439.645	11602.88
439.754	11702.88
439.862	11371.88
439.97	11650.88
440.079	11471.88
440.187	11556.88
440.295	11744.88
440.404	11794.88
440.512	11886.88
440.62	11955.88
440.729	12099.88
440.837	12307.88
440.945	13141.88
441.054	12698.88
441.162	12678.88
441.27	13287.88
441.378	13511.88
441.487	13365.88
441.595	13910.88
441.703	13688.88
441.811	13090.88
441.92	12912.88
442.028	12612.88
442.136	12787.88
442.244	12627.88
442.352	12666.88
442.461	12507.88
442.569	12346.88
442.677	12688.88
442.785	12646.88
442.893	12422.88
443.001	12622.88
443.109	12469.88
443.217	12600.88
443.325	12692.88
443.434	13370.88
443.542	13187.88
443.65	13066.88
443.758	13315.88
443.866	13357.88
443.974	13926.88
444.082	13941.88
444.19	14357.88
444.298	14568.88
444.406	14568.88
444.514	14568.88
444.622	14568.88
444.73	14568.88
444.838	14568.88
444.946	14568.88
445.054	14186.88
445.161	13985.88
445.269	13586.88
445.377	13429.88
445.485	13369.88
445.593	12969.88
445.701	13004.88
445.809	12941.88
445.917	12752.88
446.025	12623.88
446.132	12838.88
446.24	12758.88
446.348	12571.88
446.456	12590.88
446.564	12648.88
446.671	12520.88
446.779	12315.88
446.887	12434.88
446.995	12242.88
447.102	12347.88
447.21	12364.88
447.318	12051.88
447.426	12058.88
447.533	12492.88
447.641	13486.88
447.749	12124.88
447.856	11999.88
447.964	12128.88
448.072	12122.88
448.179	11991.88
448.287	12219.88
448.395	12163.88
448.502	11962.88
448.61	12248.88
448.718	12210.88
448.825	12253.88
448.933	12223.88
449.04	12244.88
449.148	12251.88
449.256	12295.88
449.363	12487.88
449.471	12383.88
449.578	12592.88
449.686	12563.88
449.793	12803.88
449.901	12706.88
450.008	12944.88
450.116	13034.88
450.223	13112.88
450.331	13520.88
450.438	13414.88
450.546	13579.88
450.653	13569.88
450.76	13961.88
450.868	13715.88
450.975	14223.88
451.083	13932.88
451.19	13971.88
451.297	13742.88
451.405	14093.88
451.512	14029.88
451.619	14239.88
451.727	14291.88
451.834	14060.88
451.941	14210.88
452.049	14300.88
452.156	14316.88
452.263	14459.88
452.371	14436.88
452.478	14568.88
452.585	14568.88
452.692	14568.88
452.8	14568.88
452.907	14568.88
453.014	14568.88
453.121	14568.88
453.229	14568.88
453.336	14568.88
453.443	14568.88
453.55	14568.88
453.657	14568.88
453.765	14568.88
453.872	14568.88
453.979	14568.88
454.086	14568.88
454.193	14568.88
454.3	14568.88
454.407	14568.88
454.514	14568.88
454.621	14568.88
454.729	14568.88
454.836	14568.88
454.943	14568.88
455.05	14568.88
455.157	14568.88
455.264	14568.88
455.371	14568.88
455.478	14568.88
455.585	14568.88
455.692	14568.88
455.799	14568.88
455.906	14568.88
456.013	14568.88
456.12	14568.88
456.227	14568.88
456.334	14568.88
456.44	14568.88
456.547	14568.88
456.654	14568.88
456.761	14568.88
456.868	14568.88
456.975	14568.88
457.082	14568.88
457.189	14568.88
457.296	14568.88
457.402	14568.88
457.509	14568.88
457.616	14568.88
457.723	14568.88
457.83	14568.88
457.936	14568.88
458.043	14568.88
458.15	14568.88
458.257	14568.88
458.363	14568.88
458.47	14568.88
458.577	14568.88
458.684	14568.88
458.79	14568.88
458.897	14568.88
459.004	14568.88
459.11	14568.88
459.217	14568.88
459.324	14568.88
459.43	14568.88
459.537	14568.88
459.644	14568.88
459.75	14568.88
459.857	14568.88
459.964	14568.88
460.07	14568.88
460.177	14568.88
460.283	14568.88
460.39	14568.88
460.496	14568.88
460.603	14568.88
460.71	14568.88
460.816	14568.88
460.923	14568.88
461.029	14568.88
461.136	14568.88
461.242	14568.88
461.349	14568.88
461.455	14568.88
461.562	14568.88
461.668	14568.88
461.774	14568.88
461.881	14568.88
461.987	14568.88
462.094	14568.88
462.2	14568.88
462.307	14568.88
462.413	14568.88
462.519	14568.88
462.626	14568.88
462.732	14568.88
462.838	14568.88
462.945	14568.88
463.051	14568.88
463.157	14568.88
463.264	14568.88
463.37	14568.88
463.476	14568.88
463.583	14568.88
463.689	14568.88
463.795	14568.88
463.901	14568.88
464.008	14568.88
464.114	14568.88
464.22	14568.88
464.326	14568.88
464.433	14568.88
464.539	14568.88
464.645	14568.88
464.751	14568.88
464.857	14568.88
464.963	14568.88
465.07	14568.88
465.176	14568.88
465.282	14568.88
465.388	14568.88
465.494	14568.88
465.6	14568.88
465.706	14568.88
465.812	14568.88
465.918	14568.88
466.024	14568.88
466.131	14568.88
466.237	14568.88
466.343	14568.88
466.449	14568.88
466.555	14568.88
466.661	14568.88
466.767	14568.88
466.873	14568.88
466.979	14568.88
467.085	14568.88
467.191	14568.88
467.296	14568.88
467.402	14568.88
467.508	14568.88
467.614	14568.88
467.72	14568.88
467.826	14568.88
467.932	14568.88
468.038	14568.88
468.144	14568.88
468.25	14568.88
468.355	14568.88
468.461	14568.88
468.567	14568.88
468.673	14568.88
468.779	14568.88
468.885	14568.88
468.99	14568.88
469.096	14568.88
469.202	14568.88
469.308	14568.88
469.413	14568.88
469.519	14568.88
469.625	14568.88
469.731	14568.88
469.836	14568.88
469.942	14568.88
470.048	14568.88
470.153	14568.88
470.259	14568.88
470.365	14568.88
470.47	14568.88
470.576	14568.88
470.682	14568.88
470.787	14568.88
470.893	14568.88
470.999	14568.88
471.104	14568.88
471.21	14568.88
471.315	14568.88
471.421	14559.88
471.527	14549.88
471.632	14393.88
471.738	14157.88
471.843	14098.88
471.949	13924.88
472.054	13898.88
472.16	13735.88
472.265	13638.88
472.371	13474.88
472.476	13395.88
472.582	13297.88
472.687	13075.88
472.793	13083.88
472.898	13081.88
473.003	13061.88
473.109	13007.88
473.214	12918.88
473.32	12941.88
473.425	13013.88
473.53	12981.88
473.636	12731.88
473.741	12823.88
473.847	12752.88
473.952	12682.88
474.057	12731.88
474.163	12847.88
474.268	12706.88
474.373	12766.88
474.478	12786.88
474.584	12619.88
474.689	12797.88
474.794	12672.88
474.9	13112.88
475.005	12675.88
475.11	12870.88
475.215	12751.88
475.321	12816.88
475.426	13117.88
475.531	12878.88
475.636	12807.88
475.741	12804.88
475.846	13156.88
475.952	13341.88
476.057	13023.88
476.162	13185.88
476.267	13206.88
476.372	13469.88
476.477	13204.88
476.582	13524.88
476.687	13273.88
476.793	13531.88
476.898	13508.88
477.003	13754.88
477.108	13689.88
477.213	13863.88
477.318	14035.88
477.423	14234.88
477.528	14467.88
477.633	14439.88
477.738	14568.88
477.843	14568.88
477.948	14568.88
478.053	14568.88
478.158	14568.88
478.263	14568.88
478.368	14568.88
478.473	14568.88
478.578	14568.88
478.682	14568.88
478.787	14568.88
478.892	14568.88
478.997	14568.88
479.102	14568.88
479.207	14568.88
479.312	14568.88
479.417	14568.88
479.521	14568.88
479.626	14568.88
479.731	14568.88
479.836	14568.88
479.941	14568.88
480.045	14568.88
480.15	14568.88
480.255	14568.88
480.36	14568.88
480.465	14568.88
480.569	14568.88
480.674	14568.88
480.779	14568.88
480.883	14568.88
480.988	14568.88
481.093	14568.88
481.197	14568.88
481.302	14568.88
481.407	14568.88
481.511	14568.88
481.616	14568.88
481.721	14568.88
481.825	14568.88
481.93	14568.88
482.035	14568.88
482.139	14568.88
482.244	14568.88
482.348	14568.88
482.453	14568.88
482.557	14568.88
482.662	14568.88
482.767	14568.88
482.871	14568.88
482.976	14568.88
483.08	14568.88
483.185	14568.88
483.289	14568.88
483.394	14568.88
483.498	14568.88
483.603	14568.88
483.707	14568.88
483.811	14568.88
483.916	14568.88
484.02	14568.88
484.125	14568.88
484.229	14568.88
484.333	14568.88
484.438	14568.88
484.542	14568.88
484.647	14568.88
484.751	14568.88
484.855	14568.88
484.96	14568.88
485.064	14568.88
485.168	14568.88
485.273	14568.88
485.377	14568.88
485.481	14568.88
485.585	14568.88
485.69	14568.88
485.794	14568.88
485.898	14568.88
486.002	14568.88
486.107	14568.88
486.211	14568.88
486.315	14568.88
486.419	14568.88
486.524	14568.88
486.628	14568.88
486.732	14568.88
486.836	14568.88
486.94	14568.88
487.044	14568.88
487.148	14568.88
487.253	14568.88
487.357	14568.88
487.461	14568.88
487.565	14568.88
487.669	14568.88
487.773	14568.88
487.877	14568.88
487.981	14568.88
488.085	14568.88
488.189	14568.88
488.293	14568.88
488.397	14568.88
488.501	14568.88
488.605	14568.88
488.709	14568.88
488.813	14568.88
488.917	14568.88
489.021	14568.88
489.125	14568.88
489.229	14568.88
489.333	14568.88
489.437	14568.88
489.541	14568.88
489.645	14568.88
489.749	14568.88
489.853	14568.88
489.956	14568.88
490.06	14568.88
490.164	14568.88
490.268	14568.88
490.372	14568.88
490.476	14568.88
490.579	14568.88
490.683	14568.88
490.787	14568.88
490.891	14568.88
490.995	14568.88
491.098	14568.88
491.202	14568.88
491.306	14568.88
491.41	14568.88
491.513	14568.88
491.617	14568.88
491.721	14568.88
491.824	14568.88
491.928	14568.88
492.032	14568.88
492.136	14568.88
492.239	14568.88
492.343	14568.88
492.446	14568.88
492.55	14568.88
492.654	14568.88
492.757	14568.88
492.861	14568.88
492.965	14568.88
493.068	14568.88
493.172	14568.88
493.275	14568.88
493.379	14568.88
493.482	14568.88
493.586	14568.88
493.689	14568.88
493.793	14568.88
493.896	14568.88
494	14568.88
494.103	14568.88
494.207	14568.88
494.31	14568.88
494.414	14568.88
494.517	14568.88
494.621	14568.88
494.724	14568.88
494.828	14568.88
494.931	14568.88
495.034	14568.88
495.138	14568.88
495.241	14568.88
495.345	14568.88
495.448	14568.88
495.551	14568.88
495.655	14568.88
495.758	14568.88
495.861	14568.88
495.965	14568.88
496.068	14568.88
496.171	14568.88
496.274	14568.88
496.378	14568.88
496.481	14568.88
496.584	14568.88
496.687	14568.88
496.791	14568.88
496.894	14568.88
496.997	14568.88
497.1	14568.88
497.204	14568.88
497.307	14568.88
497.41	14568.88
497.513	14568.88
497.616	14568.88
497.719	14568.88
497.823	14568.88
497.926	14568.88
498.029	14568.88
498.132	14568.88
498.235	14568.88
498.338	14568.88
498.441	14568.88
498.544	14568.88
498.647	14568.88
498.75	14568.88
498.853	14568.88
498.956	14568.88
499.059	14568.88
499.163	14568.88
499.266	14568.88
499.369	14568.88
499.471	14568.88
499.574	14568.88
499.677	14568.88
499.78	14568.88
499.883	14568.88
499.986	14568.88
500.089	14568.88
500.192	14568.88
500.295	14568.88
500.398	14568.88
500.501	14568.88
500.604	14568.88
500.707	14568.88
500.809	14568.88
500.912	14568.88
501.015	14568.88
501.118	14568.88
501.221	14568.88
501.324	14568.88
501.426	14568.88
501.529	14568.88
501.632	14568.88
501.735	14568.88
501.837	14568.88
501.94	14568.88
502.043	14568.88
502.146	14568.88
502.248	14568.88
502.351	14568.88
502.454	14568.88
502.557	14568.88
502.659	14568.88
502.762	14568.88
502.865	14568.88
502.967	14568.88
503.07	14568.88
503.173	14568.88
503.275	14568.88
503.378	14568.88
503.48	14568.88
503.583	14568.88
503.686	14568.88
503.788	14568.88
503.891	14568.88
503.993	14568.88
504.096	14568.88
504.198	14568.88
504.301	14568.88
504.403	14568.88
504.506	14568.88
504.608	14568.88
504.711	14568.88
504.813	14568.88
504.916	14568.88
505.018	14568.88
505.121	14568.88
505.223	14568.88
505.326	14568.88
505.428	14568.88
505.531	14568.88
505.633	14568.88
505.735	14568.88
505.838	14568.88
505.94	14568.88
506.042	14568.88
506.145	14568.88
506.247	14568.88
506.35	14568.88
506.452	14568.88
506.554	14568.88
506.656	14568.88
506.759	14568.88
506.861	14568.88
506.963	14510.88
507.066	14514.88
507.168	14568.88
507.27	14568.88
507.372	14414.88
507.475	14328.88
507.577	14297.88
507.679	14221.88
507.781	13927.88
507.883	13949.88
507.986	13819.88
508.088	13746.88
508.19	13755.88
508.292	13844.88
508.394	13672.88
508.496	13547.88
508.598	13590.88
508.701	13661.88
508.803	13598.88
508.905	13501.88
509.007	13467.88
509.109	13349.88
509.211	13543.88
509.313	13488.88
509.415	13120.88
509.517	13273.88
509.619	13385.88
509.721	13222.88
509.823	13166.88
509.925	13524.88
510.027	13145.88
510.129	13080.88
510.231	13247.88
510.333	12981.88
510.435	12999.88
510.537	13046.88
510.639	13230.88
510.741	13137.88
510.843	13114.88
510.945	13016.88
511.047	13126.88
511.148	13153.88
511.25	13208.88
511.352	13264.88
511.454	13082.88
511.556	13340.88
511.658	13130.88
511.76	13245.88
511.861	13527.88
511.963	13211.88
512.065	12991.88
512.167	13119.88
512.268	13544.88
512.37	13159.88
512.472	13249.88
512.574	13382.88
512.676	13396.88
512.777	13193.88
512.879	13320.88
512.981	13389.88
513.082	13298.88
513.184	13297.88
513.286	13903.88
513.387	13540.88
513.489	13808.88
513.591	13605.88
513.692	13615.88
513.794	13814.88
513.896	13643.88
513.997	13627.88
514.099	13578.88
514.2	13979.88
514.302	13916.88
514.404	13926.88
514.505	13884.88
514.607	14162.88
514.708	14088.88
514.81	14187.88
514.911	14173.88
515.013	14291.88
515.114	14483.88
515.216	14568.88
515.317	14568.88
515.419	14568.88
515.52	14568.88
515.622	14568.88
515.723	14568.88
515.825	14568.88
515.926	14568.88
516.027	14568.88
516.129	14568.88
516.23	14568.88
516.332	14568.88
516.433	14568.88
516.534	14568.88
516.636	14568.88
516.737	14568.88
516.838	14568.88
516.94	14568.88
517.041	14568.88
517.142	14568.88
517.244	14568.88
517.345	14568.88
517.446	14568.88
517.547	14568.88
517.649	14568.88
517.75	14568.88
517.851	14568.88
517.952	14568.88
518.054	14568.88
518.155	14568.88
518.256	14568.88
518.357	14568.88
518.458	14568.88
518.56	14568.88
518.661	14568.88
518.762	14568.88
518.863	14568.88
518.964	14568.88
519.065	14568.88
519.166	14568.88
519.268	14568.88
519.369	14568.88
519.47	14568.88
519.571	14568.88
519.672	14568.88
519.773	14568.88
519.874	14568.88
519.975	14568.88
520.076	14568.88
520.177	14568.88
520.278	14568.88
520.379	14568.88
520.48	14568.88
520.581	14568.88
520.682	14568.88
520.783	14568.88
520.884	14568.88
520.985	14568.88
521.086	14568.88
521.187	14568.88
521.288	14568.88
521.389	14568.88
521.489	14568.88
521.59	14568.88
521.691	14568.88
521.792	14568.88
521.893	14568.88
521.994	14568.88
522.095	14568.88
522.195	14568.88
522.296	14568.88
522.397	14568.88
522.498	14568.88
522.599	14568.88
522.699	14568.88
522.8	14568.88
522.901	14568.88
523.002	14568.88
523.102	14568.88
523.203	14568.88
523.304	14568.88
523.405	14568.88
523.505	14568.88
523.606	14568.88
523.707	14568.88
523.807	14568.88
523.908	14568.88
524.009	14568.88
524.109	14568.88
524.21	14568.88
524.31	14568.88
524.411	14568.88
524.512	14568.88
524.612	14568.88
524.713	14568.88
524.813	14568.88
524.914	14568.88
525.014	14568.88
525.115	14568.88
525.216	14568.88
525.316	14568.88
525.417	14568.88
525.517	14568.88
525.618	14568.88
525.718	14568.88
525.819	14568.88
525.919	14568.88
526.019	14568.88
526.12	14568.88
526.22	14568.88
526.321	14568.88
526.421	14568.88
526.522	14568.88
526.622	14568.88
526.722	14568.88
526.823	14568.88
526.923	14568.88
527.023	14568.88
527.124	14568.88
527.224	14568.88
527.324	14568.88
527.425	14568.88
527.525	14568.88
527.625	14568.88
527.726	14568.88
527.826	14568.88
527.926	14568.88
528.026	14568.88
528.127	14568.88
528.227	14568.88
528.327	14568.88
528.427	14568.88
528.528	14568.88
528.628	14568.88
528.728	14568.88
528.828	14568.88
528.928	14568.88
529.029	14568.88
529.129	14568.88
529.229	14568.88
529.329	14568.88
529.429	14568.88
529.529	14568.88
529.629	14568.88
529.729	14568.88
529.829	14568.88
529.93	14568.88
530.03	14568.88
530.13	14568.88
530.23	14568.88
530.33	14568.88
530.43	14568.88
530.53	14568.88
530.63	14568.88
530.73	14568.88
530.83	14568.88
530.93	14568.88
531.03	14568.88
531.13	14568.88
531.23	14568.88
531.33	14568.88
531.429	14568.88
531.529	14568.88
531.629	14568.88
531.729	14568.88
531.829	14568.88
531.929	14568.88
532.029	14568.88
532.129	14568.88
532.229	14568.88
532.328	14568.88
532.428	14486.88
532.528	14568.88
532.628	14409.88
532.728	14503.88
532.827	14217.88
532.927	14455.88
533.027	14305.88
533.127	14568.88
533.227	14462.88
533.326	14368.88
533.426	14127.88
533.526	14474.88
533.625	14503.88
533.725	14385.88
533.825	14167.88
533.924	14126.88
534.024	13931.88
534.124	13842.88
534.223	14018.88
534.323	14320.88
534.423	13874.88
534.522	13982.88
534.622	13612.88
534.722	13584.88
534.821	13724.88
534.921	13599.88
535.02	13434.88
535.12	13718.88
535.219	13667.88
535.319	13413.88
535.419	13275.88
535.518	13165.88
535.618	13148.88
535.717	13251.88
535.817	13009.88
535.916	13001.88
536.016	12971.88
536.115	12784.88
536.215	12719.88
536.314	12556.88
536.413	12514.88
536.513	12573.88
536.612	12582.88
536.712	12386.88
536.811	12534.88
536.91	12485.88
537.01	12340.88
537.109	12503.88
537.209	12139.88
537.308	12123.88
537.407	12283.88
537.507	12230.88
537.606	12130.88
537.705	12363.88
537.805	12123.88
537.904	11898.88
538.003	12076.88
538.102	12189.88
538.202	12022.88
538.301	11983.88
538.4	12105.88
538.499	11883.88
538.599	11885.88
538.698	11927.88
538.797	11695.88
538.896	11813.88
538.995	11794.88
539.095	11596.88
539.194	11828.88
539.293	11580.88
539.392	11573.88
539.491	11629.88
539.59	11567.88
539.689	11836.88
539.789	11535.88
539.888	11337.88
539.987	11486.88
540.086	11280.88
540.185	11221.88
540.284	11432.88
540.383	11171.88
540.482	11294.88
540.581	11187.88
540.68	11101.88
540.779	11165.88
540.878	11085.88
540.977	11256.88
541.076	11031.88
541.175	11032.88
541.274	11290.88
541.373	11050.88
541.472	10989.88
541.571	10890.88
541.67	12285.88
541.769	11008.88
541.868	10803.88
541.966	10941.88
542.065	10726.88
542.164	10800.88
542.263	10779.88
542.362	10621.88
542.461	10932.88
542.56	10727.88
542.658	10821.88
542.757	10687.88
542.856	10611.88
542.955	10464.88
543.054	10477.88
543.152	10763.88
543.251	10581.88
543.35	10787.88
543.449	10588.88
543.547	10684.88
543.646	10406.88
543.745	10596.88
543.843	10685.88
543.942	10615.88
544.041	10469.88
544.14	10570.88
544.238	10522.88
544.337	10833.88
544.436	10795.88
544.534	10779.88
544.633	10771.88
544.731	10557.88
544.83	10927.88
544.929	10798.88
545.027	10815.88
545.126	10880.88
545.224	11027.88
545.323	10720.88
545.421	10863.88
545.52	10811.88
545.619	10922.88
545.717	10893.88
545.816	10858.88
545.914	10673.88
546.013	10842.88
546.111	11098.88
546.209	10765.88
546.308	10660.88
546.406	10567.88
546.505	10831.88
546.603	10838.88
546.702	10578.88
546.8	10618.88
546.899	10468.88
546.997	10798.88
547.095	10711.88
547.194	10641.88
547.292	10772.88
547.39	10914.88
547.489	10715.88
547.587	11090.88
547.685	10745.88
547.784	10980.88
547.882	10713.88
547.98	10851.88
548.079	10755.88
548.177	10726.88
548.275	10668.88
548.373	10860.88
548.472	10445.88
548.57	10671.88
548.668	10936.88
548.766	10753.88
548.864	11087.88
548.963	10877.88
549.061	11010.88
549.159	10926.88
549.257	11193.88
549.355	10963.88
549.454	10972.88
549.552	11200.88
549.65	11026.88
549.748	10904.88
549.846	10910.88
549.944	10928.88
550.042	10790.88
550.14	10771.88
550.238	10784.88
550.336	10500.88
550.434	10418.88
550.532	10461.88
550.631	10657.88
550.729	10574.88
550.827	10769.88
550.925	10592.88
551.023	10530.88
551.121	10492.88
551.218	10656.88
551.316	10510.88
551.414	10676.88
551.512	10503.88
551.61	10793.88
551.708	10889.88
551.806	10883.88
551.904	10853.88
552.002	10932.88
552.1	11148.88
552.198	11201.88
552.296	11303.88
552.393	11525.88
552.491	11870.88
552.589	11758.88
552.687	11769.88
552.785	11952.88
552.882	12028.88
552.98	12268.88
553.078	12105.88
553.176	12183.88
553.274	12238.88
553.371	12195.88
553.469	12093.88
553.567	11815.88
553.665	11732.88
553.762	12203.88
553.86	11681.88
553.958	11496.88
554.055	11396.88
554.153	11310.88
554.251	11089.88
554.348	11002.88
554.446	10891.88
554.544	10853.88
554.641	11252.88
554.739	10820.88
554.837	10747.88
554.934	10712.88
555.032	10617.88
555.129	10366.88
555.227	10671.88
555.324	13797.88
555.422	10497.88
555.519	10178.88
555.617	10173.88
555.715	9823.88
555.812	10487.88
555.91	9981.88
556.007	10074.88
556.105	9861.88
556.202	9902.88
556.299	9737.88
556.397	9973.88
556.494	9821.88
556.592	9825.88
556.689	9877.88
556.787	9702.88
556.884	9758.88
556.981	9666.88
557.079	9704.88
557.176	9735.88
557.273	9810.88
557.371	9899.88
557.468	9826.88
557.566	9811.88
557.663	9611.88
557.76	9620.88
557.857	9663.88
557.955	9598.88
558.052	9683.88
558.149	9855.88
558.247	9917.88
558.344	9663.88
558.441	9617.88
558.538	9617.88
558.636	9667.88
558.733	9623.88
558.83	9832.88
558.927	9628.88
559.024	9630.88
559.122	9733.88
559.219	9528.88
559.316	9860.88
559.413	9930.88
559.51	9766.88
559.607	9668.88
559.704	9823.88
559.801	9915.88
559.899	9722.88
559.996	10123.88
560.093	9936.88
560.19	9702.88
560.287	9715.88
560.384	9987.88
560.481	9703.88
560.578	9844.88
560.675	9842.88
560.772	9913.88
560.869	9818.88
560.966	10173.88
561.063	9872.88
561.16	10034.88
561.257	9973.88
561.354	10062.88
561.451	10041.88
561.548	10055.88
561.645	10294.88
561.742	10031.88
561.838	10129.88
561.935	10248.88
562.032	10070.88
562.129	10226.88
562.226	10250.88
562.323	10294.88
562.42	10360.88
562.516	10290.88
562.613	10328.88
562.71	10325.88
562.807	11188.88
562.904	10373.88
563	10432.88
563.097	10557.88
563.194	10570.88
563.291	10541.88
563.387	10618.88
563.484	10771.88
563.581	10816.88
563.678	10705.88
563.774	11255.88
563.871	11051.88
563.968	11010.88
564.064	11299.88
564.161	11173.88
564.258	11297.88
564.354	11521.88
564.451	11510.88
564.548	11640.88
564.644	11674.88
564.741	11936.88
564.837	11921.88
564.934	12048.88
565.031	12314.88
565.127	12468.88
565.224	12618.88
565.32	13082.88
565.417	13227.88
565.513	13280.88
565.61	13774.88
565.706	13986.88
565.803	14233.88
565.899	14540.88
565.996	14568.88
566.092	14568.88
566.189	14568.88
566.285	14568.88
566.382	14568.88
566.478	14568.88
566.574	14568.88
566.671	14568.88
566.767	14568.88
566.864	14568.88
566.96	14568.88
567.056	14568.88
567.153	14568.88
567.249	14568.88
567.345	14568.88
567.442	14568.88
567.538	14568.88
567.634	14568.88
567.731	14568.88
567.827	14568.88
567.923	14568.88
568.019	14568.88
568.116	14568.88
568.212	14568.88
568.308	14568.88
568.404	14568.88
568.501	14568.88
568.597	14568.88
568.693	14568.88
568.789	14568.88
568.885	14566.88
568.982	14282.88
569.078	13776.88
569.174	13772.88
569.27	13046.88
569.366	13036.88
569.462	12713.88
569.558	12611.88
569.655	12460.88
569.751	12077.88
569.847	12120.88
569.943	11990.88
570.039	11858.88
570.135	12334.88
570.231	11833.88
570.327	11914.88
570.423	11874.88
570.519	11691.88
570.615	11722.88
570.711	11934.88
570.807	11920.88
570.903	11875.88
570.999	11777.88
571.095	11670.88
571.191	11375.88
571.287	11302.88
571.383	11147.88
571.479	10805.88
571.574	10755.88
571.67	10651.88
571.766	10809.88
571.862	10425.88
571.958	10402.88
572.054	10220.88
572.15	9937.88
572.246	9791.88
572.341	10019.88
572.437	9901.88
572.533	9956.88
572.629	9830.88
572.725	9802.88
572.82	9566.88
572.916	9787.88
573.012	9530.88
573.108	9558.88
573.203	9471.88
573.299	9382.88
573.395	9282.88
573.49	9200.88
573.586	9197.88
573.682	9253.88
573.778	9362.88
573.873	9163.88
573.969	9134.88
574.065	9172.88
574.16	9239.88
574.256	9043.88
574.351	9274.88
574.447	9146.88
574.543	9109.88
574.638	9146.88
574.734	9173.88
574.829	9243.88
574.925	8788.88
575.02	8817.88
575.116	8774.88
575.212	8704.88
575.307	8696.88
575.403	8694.88
575.498	8606.88
575.594	8554.88
575.689	8581.88
575.784	8412.88
575.88	8378.88
575.975	8446.88
576.071	8311.88
576.166	8179.88
576.262	8306.88
576.357	8205.88
576.452	8369.88
576.548	8223.88
576.643	8261.88
576.739	8126.88
576.834	8089.88
576.929	8097.88
577.025	8252.88
577.12	7940.88
577.215	7854.88
577.311	7928.88
577.406	7892.88
577.501	8027.88
577.597	7669.88
577.692	7924.88
577.787	7786.88
577.882	7727.88
577.978	7585.88
578.073	7617.88
578.168	7550.88
578.263	7413.88
578.358	7523.88
578.454	7412.88
578.549	7511.88
578.644	7374.88
578.739	7411.88
578.834	7264.88
578.929	7211.88
579.025	7375.88
579.12	7268.88
579.215	7438.88
579.31	7422.88
579.405	7104.88
579.5	7218.88
579.595	7082.88
579.69	6970.88
579.785	7035.88
579.88	7002.88
579.975	7005.88
580.07	6909.88
580.165	6932.88
580.26	6932.88
580.355	6920.88
580.45	6699.88
580.545	6722.88
580.64	6834.88
580.735	6810.88
580.83	6676.88
580.925	6674.88
581.02	6695.88
581.115	6624.88
581.21	6476.88
581.305	6711.88
581.4	6508.88
581.495	6552.88
581.589	6591.88
581.684	6454.88
581.779	6576.88
581.874	6602.88
581.969	6624.88
582.064	6361.88
582.158	6404.88
582.253	6282.88
582.348	6370.88
582.443	6318.88
582.537	6336.88
582.632	6508.88
582.727	6340.88
582.822	6224.88
582.916	6136.88
583.011	6158.88
583.106	6337.88
583.201	6076.88
583.295	6216.88
583.39	6018.88
583.485	6053.88
583.579	7783.88
583.674	6119.88
583.769	6234.88
583.863	6011.88
583.958	6011.88
584.052	5899.88
584.147	5951.88
584.242	5892.88
584.336	6023.88
584.431	6228.88
584.525	5960.88
584.62	6112.88
584.714	5969.88
584.809	5911.88
584.903	5837.88
584.998	5997.88
585.092	5793.88
585.187	5945.88
585.281	5823.88
585.376	5884.88
585.47	5860.88
585.565	5810.88
585.659	5706.88
585.754	5660.88
585.848	5900.88
585.942	5694.88
586.037	5738.88
586.131	7123.88
586.226	5751.88
586.32	5774.88
586.414	5575.88
586.509	5781.88
586.603	5769.88
586.697	5751.88
586.792	5659.88
586.886	5589.88
586.98	5712.88
587.075	5591.88
587.169	5548.88
587.263	5798.88
587.357	5531.88
587.452	5543.88
587.546	5724.88
587.64	5546.88
587.734	5563.88
587.829	5604.88
587.923	5591.88
588.017	5561.88
588.111	5558.88
588.205	5802.88
588.3	5709.88
588.394	5578.88
588.488	5791.88
588.582	6095.88
588.676	6519.88
588.77	8575.88
588.864	14486.88
588.958	14568.88
589.052	11638.88
589.147	8526.88
589.241	7083.88
589.335	7093.88
589.429	10376.88
589.523	12107.88
589.617	10471.88
589.711	7983.88
589.805	6570.88
589.899	6135.88
589.993	5778.88
590.087	5606.88
590.181	5585.88
590.275	5594.88
590.369	5620.88
590.462	5422.88
590.556	5403.88
590.65	5506.88
590.744	5471.88
590.838	5387.88
590.932	5420.88
591.026	5565.88
591.12	5725.88
591.214	5518.88
591.307	5606.88
591.401	5652.88
591.495	5590.88
591.589	5515.88
591.683	5658.88
591.777	5774.88
591.87	6196.88
591.964	5793.88
592.058	5748.88
592.152	5952.88
592.245	6005.88
592.339	6191.88
592.433	6227.88
592.527	6197.88
592.62	6322.88
592.714	6351.88
592.808	6450.88
592.901	6611.88
592.995	6431.88
593.089	6778.88
593.182	6647.88
593.276	6584.88
593.37	6563.88
593.463	6596.88
593.557	6595.88
593.65	6560.88
593.744	6592.88
593.837	6788.88
593.931	6571.88
594.025	10162.88
594.118	6924.88
594.212	6381.88
594.305	6356.88
594.399	6484.88
594.492	6574.88
594.586	6111.88
594.679	5994.88
594.773	5909.88
594.866	5837.88
594.96	5802.88
595.053	5550.88
595.146	5551.88
595.24	5419.88
595.333	5444.88
595.427	5197.88
595.52	5178.88
595.614	5456.88
595.707	5143.88
595.8	4874.88
595.894	4971.88
595.987	4845.88
596.08	4738.88
596.174	5053.88
596.267	4844.88
596.36	4802.88
596.454	4832.88
596.547	4706.88
596.64	4469.88
596.733	4442.88
596.827	4588.88
596.92	4551.88
597.013	4425.88
597.106	4395.88
597.2	4327.88
597.293	4252.88
597.386	4509.88
597.479	4385.88
597.572	4380.88
597.666	4251.88
597.759	4256.88
597.852	4432.88
597.945	4196.88
598.038	4235.88
598.131	4133.88
598.224	4175.88
598.317	4305.88
598.411	4156.88
598.504	4107.88
598.597	4128.88
598.69	4219.88
598.783	4067.88
598.876	4138.88
598.969	4221.88
599.062	4033.88
599.155	4122.88
599.248	4101.88
599.341	4125.88
599.434	4090.88
599.527	4125.88
599.62	4014.88
599.713	3898.88
599.806	4022.88
599.899	4180.88
599.991	3934.88
600.084	4300.88
600.177	3973.88
600.27	3946.88
600.363	4154.88
600.456	4002.88
600.549	3994.88
600.642	3829.88
600.734	3972.88
600.827	3897.88
600.92	3994.88
601.013	3916.88
601.106	4016.88
601.199	3906.88
601.291	3902.88
601.384	3828.88
601.477	3980.88
601.57	3925.88
601.662	3853.88
601.755	3819.88
601.848	3789.88
601.94	3831.88
602.033	4029.88
602.126	3774.88
602.219	3755.88
602.311	3975.88
602.404	3687.88
602.497	3705.88
602.589	3735.88
602.682	3737.88
602.774	3807.88
602.867	3826.88
602.96	3752.88
603.052	3693.88
603.145	3761.88
603.237	3845.88
603.33	3669.88
603.422	3800.88
603.515	3676.88
603.608	3693.88
603.7	3679.88
603.793	3731.88
603.885	3707.88
603.978	3588.88
604.07	3678.88
604.163	3666.88
604.255	3607.88
604.347	3671.88
604.44	3583.88
604.532	3651.88
604.625	3608.88
604.717	3663.88
604.81	3624.88
604.902	3602.88
604.994	3652.88
605.087	3569.88
605.179	3637.88
605.271	3582.88
605.364	3577.88
605.456	3627.88
605.548	3570.88
605.641	3611.88
605.733	3581.88
605.825	3583.88
605.918	3567.88
606.01	3743.88
606.102	3916.88
606.194	3593.88
606.287	3724.88
606.379	3473.88
606.471	3587.88
606.563	3598.88
606.655	3600.88
606.748	3655.88
606.84	3539.88
606.932	3559.88
607.024	3413.88
607.116	3471.88
607.208	3381.88
607.301	3545.88
607.393	3510.88
607.485	3478.88
607.577	3590.88
607.669	3664.88
607.761	3510.88
607.853	3715.88
607.945	3416.88
608.037	3416.88
608.129	3483.88
608.221	3429.88
608.313	3453.88
608.405	3535.88
608.497	3358.88
608.589	3439.88
608.681	3455.88
608.773	3511.88
608.865	3477.88
608.957	3425.88
609.049	3356.88
609.141	3543.88
609.233	3452.88
609.325	3308.88
609.417	3452.88
609.509	3542.88
609.601	3528.88
609.693	3541.88
609.784	3453.88
609.876	3331.88
609.968	3396.88
610.06	5770.88
610.152	3558.88
610.244	3627.88
610.335	3431.88
610.427	3362.88
610.519	3300.88
610.611	3372.88
610.702	3346.88
610.794	3233.88
610.886	3320.88
610.978	3312.88
611.069	3683.88
611.161	3160.88
611.253	3282.88
611.344	3018.88
611.436	2950.88
611.528	3082.88
611.62	2943.88
611.711	2958.88
611.803	2847.88
611.894	2911.88
611.986	2846.88
612.078	2877.88
612.169	2846.88
612.261	2664.88
612.352	2618.88
612.444	2710.88
612.536	2739.88
612.627	2622.88
612.719	2523.88
612.81	2507.88
612.902	2419.88
612.993	2492.88
613.085	2405.88
613.176	2339.88
613.268	2366.88
613.359	2306.88
613.451	2201.88
613.542	2228.88
613.634	2219.88
613.725	2196.88
613.816	2184.88
613.908	2041.88
613.999	2002.88
614.091	1892.88
614.182	1829.88
614.273	1949.88
614.365	1807.88
614.456	1731.88
614.547	1758.88
614.639	1703.88
614.73	1647.88
614.821	1788.88
614.913	1560.88
615.004	1479.88
615.095	1456.88
615.187	1383.88
