Data from 21g_HRC06701__77__321.txt Node

Date: Thu Apr 18 02:08:56 CDT 2024
User: Estudiantes 2
Spectrometer: HR+C0670
Trigger mode: 4
Integration Time (sec): 1.000000E0
Scans to average: 1
Electric dark correction enabled: true
Nonlinearity correction enabled: false
Boxcar width: 0
XAxis mode: Wavelengths
Number of Pixels in Spectrum: 2048
>>>>>Begin Spectral Data<<<<<
407.81	-135.94
407.921	-135.94
408.032	-135.94
408.143	-138.94
408.254	-92.94
408.365	32.06
408.476	262.06
408.587	6.06
408.699	-23.94
408.81	-28.94
408.921	-31.94
409.032	-51.94
409.143	-8.94
409.254	21.06
409.365	123.06
409.476	-50.94
409.587	14.06
409.698	106.06
409.809	81.06
409.92	-38.94
410.031	-2.94
410.142	36.06
410.253	-7.94
410.364	86.06
410.475	-26.94
410.585	137.06
410.696	202.06
410.807	213.06
410.918	180.06
411.029	259.06
411.14	300.06
411.251	183.06
411.362	272.06
411.472	280.06
411.583	227.06
411.694	244.06
411.805	211.06
411.916	209.06
412.026	267.06
412.137	241.06
412.248	225.06
412.359	151.06
412.47	155.06
412.58	176.06
412.691	210.06
412.802	209.06
412.912	218.06
413.023	183.06
413.134	183.06
413.245	322.06
413.355	173.06
413.466	170.06
413.577	200.06
413.687	299.06
413.798	121.06
413.909	250.06
414.019	226.06
414.13	216.06
414.24	145.06
414.351	289.06
414.462	361.06
414.572	256.06
414.683	291.06
414.793	203.06
414.904	544.06
415.014	234.06
415.125	186.06
415.235	234.06
415.346	302.06
415.456	381.06
415.567	216.06
415.677	208.06
415.788	312.06
415.898	181.06
416.009	152.06
416.119	245.06
416.23	206.06
416.34	126.06
416.45	226.06
416.561	1070.06
416.671	348.06
416.782	147.06
416.892	200.06
417.002	235.06
417.113	251.06
417.223	242.06
417.333	160.06
417.444	208.06
417.554	272.06
417.664	240.06
417.775	179.06
417.885	227.06
417.995	247.06
418.106	304.06
418.216	239.06
418.326	275.06
418.436	176.06
418.547	202.06
418.657	194.06
418.767	297.06
418.877	225.06
418.987	267.06
419.098	223.06
419.208	194.06
419.318	303.06
419.428	308.06
419.538	161.06
419.648	244.06
419.759	292.06
419.869	251.06
419.979	236.06
420.089	257.06
420.199	248.06
420.309	266.06
420.419	327.06
420.529	244.06
420.639	719.06
420.749	355.06
420.859	319.06
420.969	236.06
421.079	494.06
421.189	397.06
421.299	280.06
421.409	185.06
421.519	384.06
421.629	329.06
421.739	225.06
421.849	227.06
421.959	182.06
422.069	274.06
422.179	189.06
422.289	196.06
422.399	256.06
422.509	357.06
422.619	2796.06
422.729	491.06
422.838	205.06
422.948	323.06
423.058	216.06
423.168	237.06
423.278	264.06
423.388	258.06
423.498	311.06
423.607	313.06
423.717	579.06
423.827	519.06
423.937	300.06
424.046	439.06
424.156	348.06
424.266	277.06
424.376	500.06
424.485	423.06
424.595	264.06
424.705	315.06
424.815	277.06
424.924	697.06
425.034	376.06
425.144	253.06
425.253	292.06
425.363	344.06
425.473	400.06
425.582	268.06
425.692	300.06
425.801	286.06
425.911	394.06
426.021	315.06
426.13	435.06
426.24	536.06
426.349	441.06
426.459	328.06
426.568	308.06
426.678	427.06
426.787	333.06
426.897	340.06
427.006	303.06
427.116	360.06
427.225	379.06
427.335	388.06
427.444	319.06
427.554	424.06
427.663	358.06
427.773	324.06
427.882	399.06
427.992	338.06
428.101	364.06
428.21	321.06
428.32	348.06
428.429	261.06
428.539	615.06
428.648	355.06
428.757	391.06
428.867	368.06
428.976	520.06
429.085	377.06
429.195	337.06
429.304	375.06
429.413	394.06
429.523	367.06
429.632	400.06
429.741	415.06
429.85	342.06
429.96	393.06
430.069	404.06
430.178	325.06
430.287	623.06
430.397	408.06
430.506	333.06
430.615	363.06
430.724	428.06
430.833	428.06
430.943	405.06
431.052	415.06
431.161	395.06
431.27	381.06
431.379	347.06
431.488	568.06
431.597	473.06
431.706	440.06
431.816	454.06
431.925	388.06
432.034	401.06
432.143	500.06
432.252	465.06
432.361	489.06
432.47	430.06
432.579	465.06
432.688	385.06
432.797	450.06
432.906	436.06
433.015	473.06
433.124	764.06
433.233	515.06
433.342	528.06
433.451	419.06
433.56	482.06
433.669	454.06
433.778	363.06
433.886	486.06
433.995	505.06
434.104	525.06
434.213	459.06
434.322	460.06
434.431	549.06
434.54	489.06
434.649	649.06
434.757	490.06
434.866	434.06
434.975	553.06
435.084	565.06
435.193	551.06
435.301	754.06
435.41	876.06
435.519	892.06
435.628	471.06
435.737	467.06
435.845	413.06
435.954	398.06
436.063	492.06
436.171	463.06
436.28	442.06
436.389	521.06
436.498	484.06
436.606	450.06
436.715	555.06
436.823	440.06
436.932	386.06
437.041	381.06
437.149	518.06
437.258	387.06
437.367	397.06
437.475	405.06
437.584	627.06
437.692	410.06
437.801	1905.06
437.91	593.06
438.018	366.06
438.127	324.06
438.235	463.06
438.344	362.06
438.452	440.06
438.561	396.06
438.669	359.06
438.778	339.06
438.886	441.06
438.995	344.06
439.103	358.06
439.212	408.06
439.32	367.06
439.428	359.06
439.537	389.06
439.645	492.06
439.754	427.06
439.862	362.06
439.97	446.06
440.079	408.06
440.187	332.06
440.295	520.06
440.404	331.06
440.512	360.06
440.62	442.06
440.729	466.06
440.837	432.06
440.945	1047.06
441.054	511.06
441.162	401.06
441.27	487.06
441.378	444.06
441.487	410.06
441.595	752.06
441.703	537.06
441.811	491.06
441.92	429.06
442.028	381.06
442.136	486.06
442.244	439.06
442.352	423.06
442.461	419.06
442.569	336.06
442.677	381.06
442.785	496.06
442.893	413.06
443.001	356.06
443.109	414.06
443.217	390.06
443.325	347.06
443.434	940.06
443.542	703.06
443.65	403.06
443.758	547.06
443.866	446.06
443.974	691.06
444.082	486.06
444.19	479.06
444.298	456.06
444.406	519.06
444.514	490.06
444.622	540.06
444.73	550.06
444.838	522.06
444.946	550.06
445.054	443.06
445.161	480.06
445.269	460.06
445.377	476.06
445.485	484.06
445.593	462.06
445.701	609.06
445.809	513.06
445.917	504.06
446.025	394.06
446.132	489.06
446.24	506.06
446.348	479.06
446.456	379.06
446.564	403.06
446.671	479.06
446.779	418.06
446.887	409.06
446.995	476.06
447.102	446.06
447.21	461.06
447.318	487.06
447.426	392.06
447.533	664.06
447.641	1611.06
447.749	617.06
447.856	405.06
447.964	438.06
448.072	592.06
448.179	382.06
448.287	483.06
448.395	523.06
448.502	414.06
448.61	470.06
448.718	468.06
448.825	466.06
448.933	433.06
449.04	406.06
449.148	487.06
449.256	437.06
449.363	413.06
449.471	494.06
449.578	515.06
449.686	387.06
449.793	589.06
449.901	438.06
450.008	482.06
450.116	583.06
450.223	458.06
450.331	526.06
450.438	531.06
450.546	530.06
450.653	511.06
450.76	528.06
450.868	624.06
450.975	691.06
451.083	496.06
451.19	578.06
451.297	519.06
451.405	540.06
451.512	511.06
451.619	607.06
451.727	611.06
451.834	481.06
451.941	536.06
452.049	506.06
452.156	486.06
452.263	570.06
452.371	530.06
452.478	594.06
452.585	723.06
452.692	496.06
452.8	525.06
452.907	704.06
453.014	593.06
453.121	494.06
453.229	613.06
453.336	679.06
453.443	651.06
453.55	529.06
453.657	643.06
453.765	600.06
453.872	581.06
453.979	655.06
454.086	564.06
454.193	593.06
454.3	626.06
454.407	693.06
454.514	671.06
454.621	577.06
454.729	587.06
454.836	576.06
454.943	582.06
455.05	711.06
455.157	675.06
455.264	580.06
455.371	697.06
455.478	582.06
455.585	1799.06
455.692	814.06
455.799	723.06
455.906	538.06
456.013	586.06
456.12	623.06
456.227	630.06
456.334	654.06
456.44	782.06
456.547	631.06
456.654	545.06
456.761	710.06
456.868	732.06
456.975	700.06
457.082	653.06
457.189	621.06
457.296	674.06
457.402	691.06
457.509	620.06
457.616	694.06
457.723	828.06
457.83	692.06
457.936	642.06
458.043	935.06
458.15	776.06
458.257	736.06
458.363	725.06
458.47	753.06
458.577	796.06
458.684	694.06
458.79	771.06
458.897	849.06
459.004	810.06
459.11	784.06
459.217	846.06
459.324	884.06
459.43	889.06
459.537	1135.06
459.644	849.06
459.75	823.06
459.857	1214.06
459.964	899.06
460.07	895.06
460.177	907.06
460.283	972.06
460.39	1094.06
460.496	929.06
460.603	1025.06
460.71	936.06
460.816	841.06
460.923	955.06
461.029	954.06
461.136	994.06
461.242	976.06
461.349	900.06
461.455	843.06
461.562	1201.06
461.668	1007.06
461.774	938.06
461.881	1028.06
461.987	994.06
462.094	965.06
462.2	1031.06
462.307	1076.06
462.413	984.06
462.519	965.06
462.626	1263.06
462.732	1056.06
462.838	1119.06
462.945	1199.06
463.051	1196.06
463.157	1092.06
463.264	1071.06
463.37	1190.06
463.476	1058.06
463.583	1062.06
463.689	1035.06
463.795	1024.06
463.901	1057.06
464.008	1195.06
464.114	991.06
464.22	957.06
464.326	1079.06
464.433	969.06
464.539	998.06
464.645	976.06
464.751	1148.06
464.857	956.06
464.963	898.06
465.07	939.06
465.176	895.06
465.282	834.06
465.388	978.06
465.494	776.06
465.6	772.06
465.706	778.06
465.812	711.06
465.918	790.06
466.024	749.06
466.131	794.06
466.237	708.06
466.343	662.06
466.449	725.06
466.555	660.06
466.661	655.06
466.767	672.06
466.873	699.06
466.979	775.06
467.085	684.06
467.191	725.06
467.296	629.06
467.402	618.06
467.508	695.06
467.614	771.06
467.72	627.06
467.826	638.06
467.932	603.06
468.038	587.06
468.144	659.06
468.25	620.06
468.355	555.06
468.461	636.06
468.567	642.06
468.673	601.06
468.779	637.06
468.885	654.06
468.99	562.06
469.096	567.06
469.202	743.06
469.308	595.06
469.413	648.06
469.519	633.06
469.625	619.06
469.731	620.06
469.836	616.06
469.942	739.06
470.048	646.06
470.153	617.06
470.259	705.06
470.365	754.06
470.47	680.06
470.576	684.06
470.682	626.06
470.787	597.06
470.893	642.06
470.999	619.06
471.104	619.06
471.21	560.06
471.315	515.06
471.421	501.06
471.527	722.06
471.632	658.06
471.738	621.06
471.843	504.06
471.949	610.06
472.054	582.06
472.16	546.06
472.265	575.06
472.371	507.06
472.476	554.06
472.582	603.06
472.687	527.06
472.793	463.06
472.898	565.06
473.003	526.06
473.109	476.06
473.214	470.06
473.32	522.06
473.425	561.06
473.53	536.06
473.636	532.06
473.741	497.06
473.847	492.06
473.952	539.06
474.057	557.06
474.163	558.06
474.268	475.06
474.373	618.06
474.478	513.06
474.584	456.06
474.689	623.06
474.794	512.06
474.9	697.06
475.005	517.06
475.11	678.06
475.215	487.06
475.321	573.06
475.426	705.06
475.531	632.06
475.636	499.06
475.741	515.06
475.846	626.06
475.952	681.06
476.057	659.06
476.162	653.06
476.267	667.06
476.372	835.06
476.477	537.06
476.582	620.06
476.687	549.06
476.793	567.06
476.898	525.06
477.003	550.06
477.108	514.06
477.213	437.06
477.318	585.06
477.423	667.06
477.528	631.06
477.633	627.06
477.738	652.06
477.843	528.06
477.948	547.06
478.053	584.06
478.158	553.06
478.263	616.06
478.368	601.06
478.473	695.06
478.578	639.06
478.682	524.06
478.787	703.06
478.892	583.06
478.997	691.06
479.102	660.06
479.207	593.06
479.312	767.06
479.417	665.06
479.521	624.06
479.626	719.06
479.731	684.06
479.836	663.06
479.941	779.06
480.045	722.06
480.15	759.06
480.255	661.06
480.36	620.06
480.465	736.06
480.569	822.06
480.674	658.06
480.779	617.06
480.883	673.06
480.988	660.06
481.093	615.06
481.197	677.06
481.302	606.06
481.407	709.06
481.511	2031.06
481.616	756.06
481.721	661.06
481.825	880.06
481.93	652.06
482.035	631.06
482.139	703.06
482.244	708.06
482.348	655.06
482.453	686.06
482.557	748.06
482.662	719.06
482.767	622.06
482.871	693.06
482.976	626.06
483.08	712.06
483.185	838.06
483.289	674.06
483.394	662.06
483.498	713.06
483.603	675.06
483.707	695.06
483.811	765.06
483.916	829.06
484.02	700.06
484.125	808.06
484.229	795.06
484.333	809.06
484.438	735.06
484.542	755.06
484.647	665.06
484.751	752.06
484.855	767.06
484.96	794.06
485.064	748.06
485.168	786.06
485.273	760.06
485.377	732.06
485.481	948.06
485.585	824.06
485.69	735.06
485.794	780.06
485.898	815.06
486.002	775.06
486.107	761.06
486.211	816.06
486.315	801.06
486.419	857.06
486.524	834.06
486.628	810.06
486.732	766.06
486.836	790.06
486.94	937.06
487.044	803.06
487.148	724.06
487.253	815.06
487.357	849.06
487.461	959.06
487.565	845.06
487.669	831.06
487.773	769.06
487.877	954.06
487.981	875.06
488.085	869.06
488.189	823.06
488.293	983.06
488.397	1283.06
488.501	903.06
488.605	831.06
488.709	832.06
488.813	836.06
488.917	799.06
489.021	856.06
489.125	1023.06
489.229	859.06
489.333	1005.06
489.437	929.06
489.541	874.06
489.645	844.06
489.749	837.06
489.853	889.06
489.956	912.06
490.06	876.06
490.164	853.06
490.268	850.06
490.372	868.06
490.476	866.06
490.579	844.06
490.683	1518.06
490.787	995.06
490.891	858.06
490.995	885.06
491.098	894.06
491.202	884.06
491.306	948.06
491.41	877.06
491.513	831.06
491.617	915.06
491.721	1069.06
491.824	1129.06
491.928	956.06
492.032	1163.06
492.136	882.06
492.239	861.06
492.343	916.06
492.446	1252.06
492.55	923.06
492.654	887.06
492.757	856.06
492.861	961.06
492.965	924.06
493.068	942.06
493.172	895.06
493.275	870.06
493.379	890.06
493.482	999.06
493.586	1020.06
493.689	1171.06
493.793	875.06
493.896	1003.06
494	1024.06
494.103	986.06
494.207	1202.06
494.31	1339.06
494.414	973.06
494.517	896.06
494.621	863.06
494.724	958.06
494.828	858.06
494.931	872.06
495.034	946.06
495.138	1091.06
495.241	904.06
495.345	1715.06
495.448	1044.06
495.551	874.06
495.655	921.06
495.758	874.06
495.861	883.06
495.965	862.06
496.068	951.06
496.171	957.06
496.274	884.06
496.378	935.06
496.481	934.06
496.584	944.06
496.687	973.06
496.791	980.06
496.894	962.06
496.997	948.06
497.1	958.06
497.204	945.06
497.307	845.06
497.41	1144.06
497.513	1159.06
497.616	967.06
497.719	984.06
497.823	984.06
497.926	976.06
498.029	1051.06
498.132	1070.06
498.235	1040.06
498.338	1147.06
498.441	1232.06
498.544	1047.06
498.647	1181.06
498.75	1359.06
498.853	1397.06
498.956	1247.06
499.059	1518.06
499.163	1358.06
499.266	1395.06
499.369	1545.06
499.471	1468.06
499.574	1652.06
499.677	1657.06
499.78	1718.06
499.883	1755.06
499.986	1877.06
500.089	1919.06
500.192	1903.06
500.295	1972.06
500.398	1962.06
500.501	1913.06
500.604	1780.06
500.707	1744.06
500.809	1722.06
500.912	1703.06
501.015	1675.06
501.118	1546.06
501.221	1546.06
501.324	1402.06
501.426	1393.06
501.529	1233.06
501.632	1274.06
501.735	1165.06
501.837	1082.06
501.94	1077.06
502.043	1097.06
502.146	1124.06
502.248	1057.06
502.351	1033.06
502.454	1091.06
502.557	980.06
502.659	995.06
502.762	921.06
502.865	833.06
502.967	869.06
503.07	960.06
503.173	910.06
503.275	876.06
503.378	882.06
503.48	801.06
503.583	931.06
503.686	910.06
503.788	1094.06
503.891	827.06
503.993	1050.06
504.096	872.06
504.198	859.06
504.301	830.06
504.403	904.06
504.506	840.06
504.608	776.06
504.711	830.06
504.813	842.06
504.916	823.06
505.018	755.06
505.121	732.06
505.223	724.06
505.326	723.06
505.428	811.06
505.531	723.06
505.633	728.06
505.735	686.06
505.838	691.06
505.94	659.06
506.042	651.06
506.145	589.06
506.247	728.06
506.35	656.06
506.452	770.06
506.554	726.06
506.656	737.06
506.759	678.06
506.861	703.06
506.963	680.06
507.066	734.06
507.168	741.06
507.27	641.06
507.372	664.06
507.475	608.06
507.577	640.06
507.679	650.06
507.781	588.06
507.883	640.06
507.986	638.06
508.088	712.06
508.19	662.06
508.292	667.06
508.394	652.06
508.496	524.06
508.598	615.06
508.701	644.06
508.803	591.06
508.905	557.06
509.007	628.06
509.109	699.06
509.211	672.06
509.313	575.06
509.415	623.06
509.517	666.06
509.619	536.06
509.721	693.06
509.823	539.06
509.925	729.06
510.027	652.06
510.129	625.06
510.231	632.06
510.333	583.06
510.435	556.06
510.537	649.06
510.639	684.06
510.741	623.06
510.843	653.06
510.945	630.06
511.047	737.06
511.148	655.06
511.25	566.06
511.352	680.06
511.454	502.06
511.556	625.06
511.658	601.06
511.76	664.06
511.861	683.06
511.963	589.06
512.065	602.06
512.167	592.06
512.268	749.06
512.37	711.06
512.472	539.06
512.574	648.06
512.676	711.06
512.777	578.06
512.879	564.06
512.981	614.06
513.082	603.06
513.184	568.06
513.286	1030.06
513.387	750.06
513.489	711.06
513.591	676.06
513.692	735.06
513.794	660.06
513.896	568.06
513.997	623.06
514.099	519.06
514.2	603.06
514.302	646.06
514.404	624.06
514.505	604.06
514.607	678.06
514.708	654.06
514.81	687.06
514.911	713.06
515.013	772.06
515.114	681.06
515.216	646.06
515.317	721.06
515.419	618.06
515.52	688.06
515.622	711.06
515.723	704.06
515.825	821.06
515.926	720.06
516.027	695.06
516.129	645.06
516.23	703.06
516.332	764.06
516.433	708.06
516.534	841.06
516.636	815.06
516.737	699.06
516.838	1716.06
516.94	969.06
517.041	820.06
517.142	915.06
517.244	951.06
517.345	930.06
517.446	892.06
517.547	930.06
517.649	898.06
517.75	890.06
517.851	864.06
517.952	1154.06
518.054	882.06
518.155	957.06
518.256	841.06
518.357	914.06
518.458	782.06
518.56	766.06
518.661	876.06
518.762	827.06
518.863	919.06
518.964	893.06
519.065	727.06
519.166	728.06
519.268	743.06
519.369	950.06
519.47	773.06
519.571	790.06
519.672	738.06
519.773	713.06
519.874	750.06
519.975	786.06
520.076	723.06
520.177	774.06
520.278	760.06
520.379	719.06
520.48	648.06
520.581	716.06
520.682	681.06
520.783	682.06
520.884	820.06
520.985	757.06
521.086	730.06
521.187	759.06
521.288	738.06
521.389	738.06
521.489	693.06
521.59	711.06
521.691	741.06
521.792	676.06
521.893	841.06
521.994	865.06
522.095	778.06
522.195	850.06
522.296	882.06
522.397	818.06
522.498	789.06
522.599	674.06
522.699	740.06
522.8	735.06
522.901	806.06
523.002	707.06
523.102	903.06
523.203	814.06
523.304	896.06
523.405	723.06
523.505	732.06
523.606	777.06
523.707	739.06
523.807	773.06
523.908	771.06
524.009	896.06
524.109	759.06
524.21	768.06
524.31	814.06
524.411	874.06
524.512	903.06
524.612	776.06
524.713	940.06
524.813	811.06
524.914	976.06
525.014	6420.06
525.115	1288.06
525.216	750.06
525.316	754.06
525.417	782.06
525.517	774.06
525.618	711.06
525.718	703.06
525.819	744.06
525.919	747.06
526.019	768.06
526.12	877.06
526.22	698.06
526.321	720.06
526.421	637.06
526.522	774.06
526.622	712.06
526.722	668.06
526.823	800.06
526.923	772.06
527.023	851.06
527.124	793.06
527.224	799.06
527.324	697.06
527.425	826.06
527.525	712.06
527.625	771.06
527.726	738.06
527.826	892.06
527.926	704.06
528.026	760.06
528.127	753.06
528.227	745.06
528.327	869.06
528.427	809.06
528.528	810.06
528.628	776.06
528.728	844.06
528.828	828.06
528.928	824.06
529.029	792.06
529.129	826.06
529.229	804.06
529.329	756.06
529.429	840.06
529.529	840.06
529.629	813.06
529.729	748.06
529.829	940.06
529.93	789.06
530.03	867.06
530.13	780.06
530.23	744.06
530.33	855.06
530.43	767.06
530.53	783.06
530.63	777.06
530.73	732.06
530.83	665.06
530.93	676.06
531.03	745.06
531.13	830.06
531.23	713.06
531.33	827.06
531.429	831.06
531.529	918.06
531.629	786.06
531.729	683.06
531.829	675.06
531.929	693.06
532.029	821.06
532.129	707.06
532.229	747.06
532.328	768.06
532.428	676.06
532.528	657.06
532.628	743.06
532.728	744.06
532.827	655.06
532.927	788.06
533.027	772.06
533.127	906.06
533.227	780.06
533.326	813.06
533.426	658.06
533.526	754.06
533.625	884.06
533.725	998.06
533.825	816.06
533.924	715.06
534.024	650.06
534.124	619.06
534.223	735.06
534.323	1097.06
534.423	747.06
534.522	711.06
534.622	662.06
534.722	649.06
534.821	732.06
534.921	667.06
535.02	609.06
535.12	730.06
535.219	855.06
535.319	763.06
535.419	694.06
535.518	632.06
535.618	722.06
535.717	767.06
535.817	602.06
535.916	608.06
536.016	705.06
536.115	595.06
536.215	660.06
536.314	596.06
536.413	559.06
536.513	625.06
536.612	593.06
536.712	545.06
536.811	601.06
536.91	604.06
537.01	552.06
537.109	694.06
537.209	682.06
537.308	583.06
537.407	601.06
537.507	636.06
537.606	571.06
537.705	665.06
537.805	650.06
537.904	561.06
538.003	615.06
538.102	701.06
538.202	659.06
538.301	648.06
538.4	664.06
538.499	691.06
538.599	630.06
538.698	845.06
538.797	645.06
538.896	707.06
538.995	617.06
539.095	609.06
539.194	804.06
539.293	634.06
539.392	626.06
539.491	640.06
539.59	607.06
539.689	767.06
539.789	798.06
539.888	502.06
539.987	522.06
540.086	619.06
540.185	602.06
540.284	585.06
540.383	631.06
540.482	543.06
540.581	578.06
540.68	583.06
540.779	641.06
540.878	631.06
540.977	634.06
541.076	649.06
541.175	596.06
541.274	833.06
541.373	716.06
541.472	600.06
541.571	515.06
541.67	1893.06
541.769	781.06
541.868	627.06
541.966	671.06
542.065	646.06
542.164	633.06
542.263	595.06
542.362	664.06
542.461	654.06
542.56	655.06
542.658	671.06
542.757	535.06
542.856	502.06
542.955	530.06
543.054	512.06
543.152	675.06
543.251	597.06
543.35	738.06
543.449	625.06
543.547	572.06
543.646	600.06
543.745	584.06
543.843	659.06
543.942	653.06
544.041	540.06
544.14	612.06
544.238	613.06
544.337	808.06
544.436	616.06
544.534	739.06
544.633	664.06
544.731	595.06
544.83	636.06
544.929	642.06
545.027	554.06
545.126	567.06
545.224	675.06
545.323	558.06
545.421	580.06
545.52	676.06
545.619	649.06
545.717	563.06
545.816	668.06
545.914	713.06
546.013	837.06
546.111	798.06
546.209	636.06
546.308	568.06
546.406	608.06
546.505	783.06
546.603	601.06
546.702	566.06
546.8	613.06
546.899	589.06
546.997	631.06
547.095	646.06
547.194	701.06
547.292	620.06
547.39	691.06
547.489	616.06
547.587	872.06
547.685	610.06
547.784	907.06
547.882	661.06
547.98	548.06
548.079	741.06
548.177	630.06
548.275	540.06
548.373	714.06
548.472	634.06
548.57	576.06
548.668	688.06
548.766	591.06
548.864	698.06
548.963	549.06
549.061	784.06
549.159	540.06
549.257	668.06
549.355	665.06
549.454	597.06
549.552	657.06
549.65	611.06
549.748	587.06
549.846	566.06
549.944	613.06
550.042	658.06
550.14	586.06
550.238	587.06
550.336	620.06
550.434	539.06
550.532	572.06
550.631	716.06
550.729	620.06
550.827	679.06
550.925	604.06
551.023	603.06
551.121	505.06
551.218	565.06
551.316	572.06
551.414	563.06
551.512	514.06
551.61	617.06
551.708	673.06
551.806	655.06
551.904	593.06
552.002	539.06
552.1	601.06
552.198	541.06
552.296	789.06
552.393	703.06
552.491	801.06
552.589	775.06
552.687	788.06
552.785	670.06
552.882	819.06
552.98	876.06
553.078	733.06
553.176	767.06
553.274	623.06
553.371	626.06
553.469	683.06
553.567	675.06
553.665	596.06
553.762	1054.06
553.86	811.06
553.958	641.06
554.055	681.06
554.153	787.06
554.251	666.06
554.348	691.06
554.446	637.06
554.544	625.06
554.641	884.06
554.739	624.06
554.837	642.06
554.934	593.06
555.032	579.06
555.129	567.06
555.227	812.06
555.324	4784.06
555.422	1058.06
555.519	633.06
555.617	605.06
555.715	540.06
555.812	1032.06
555.91	528.06
556.007	638.06
556.105	599.06
556.202	585.06
556.299	543.06
556.397	586.06
556.494	533.06
556.592	583.06
556.689	660.06
556.787	517.06
556.884	525.06
556.981	583.06
557.079	548.06
557.176	583.06
557.273	610.06
557.371	669.06
557.468	596.06
557.566	596.06
557.663	622.06
557.76	579.06
557.857	550.06
557.955	646.06
558.052	642.06
558.149	705.06
558.247	715.06
558.344	554.06
558.441	518.06
558.538	541.06
558.636	552.06
558.733	590.06
558.83	561.06
558.927	631.06
559.024	571.06
559.122	532.06
559.219	624.06
559.316	654.06
559.413	688.06
559.51	580.06
559.607	577.06
559.704	576.06
559.801	624.06
559.899	613.06
559.996	817.06
560.093	589.06
560.19	549.06
560.287	607.06
560.384	740.06
560.481	638.06
560.578	534.06
560.675	530.06
560.772	699.06
560.869	617.06
560.966	707.06
561.063	540.06
561.16	689.06
561.257	596.06
561.354	572.06
561.451	595.06
561.548	591.06
561.645	799.06
561.742	568.06
561.838	532.06
561.935	597.06
562.032	612.06
562.129	608.06
562.226	555.06
562.323	597.06
562.42	672.06
562.516	575.06
562.613	556.06
562.71	650.06
562.807	1321.06
562.904	602.06
563	615.06
563.097	578.06
563.194	587.06
563.291	601.06
563.387	540.06
563.484	604.06
563.581	611.06
563.678	570.06
563.774	978.06
563.871	627.06
563.968	699.06
564.064	641.06
564.161	609.06
564.258	623.06
564.354	688.06
564.451	653.06
564.548	724.06
564.644	669.06
564.741	624.06
564.837	607.06
564.934	649.06
565.031	639.06
565.127	660.06
565.224	756.06
565.32	833.06
565.417	666.06
565.513	766.06
565.61	706.06
565.706	777.06
565.803	787.06
565.899	738.06
565.996	816.06
566.092	789.06
566.189	786.06
566.285	802.06
566.382	811.06
566.478	931.06
566.574	902.06
566.671	848.06
566.767	842.06
566.864	770.06
566.96	902.06
567.056	889.06
567.153	1140.06
567.249	929.06
567.345	971.06
567.442	1079.06
567.538	973.06
567.634	943.06
567.731	976.06
567.827	964.06
567.923	1003.06
568.019	879.06
568.116	733.06
568.212	770.06
568.308	908.06
568.404	818.06
568.501	753.06
568.597	787.06
568.693	742.06
568.789	1348.06
568.885	748.06
568.982	749.06
569.078	653.06
569.174	749.06
569.27	664.06
569.366	705.06
569.462	681.06
569.558	639.06
569.655	641.06
569.751	571.06
569.847	632.06
569.943	641.06
570.039	554.06
570.135	943.06
570.231	608.06
570.327	739.06
570.423	730.06
570.519	684.06
570.615	564.06
570.711	663.06
570.807	700.06
570.903	564.06
570.999	608.06
571.095	618.06
571.191	625.06
571.287	581.06
571.383	664.06
571.479	623.06
571.574	653.06
571.67	548.06
571.766	778.06
571.862	567.06
571.958	566.06
572.054	731.06
572.15	518.06
572.246	440.06
572.341	659.06
572.437	599.06
572.533	578.06
572.629	544.06
572.725	602.06
572.82	532.06
572.916	644.06
573.012	578.06
573.108	623.06
573.203	510.06
573.299	496.06
573.395	473.06
573.49	419.06
573.586	472.06
573.682	557.06
573.778	599.06
573.873	479.06
573.969	483.06
574.065	500.06
574.16	506.06
574.256	524.06
574.351	522.06
574.447	430.06
574.543	502.06
574.638	580.06
574.734	503.06
574.829	689.06
574.925	566.06
575.02	432.06
575.116	468.06
575.212	548.06
575.307	649.06
575.403	511.06
575.498	601.06
575.594	475.06
575.689	533.06
575.784	519.06
575.88	529.06
575.975	551.06
576.071	454.06
576.166	451.06
576.262	508.06
576.357	444.06
576.452	621.06
576.548	487.06
576.643	428.06
576.739	543.06
576.834	474.06
576.929	502.06
577.025	736.06
577.12	427.06
577.215	419.06
577.311	497.06
577.406	583.06
577.501	641.06
577.597	370.06
577.692	607.06
577.787	544.06
577.882	449.06
577.978	507.06
578.073	411.06
578.168	372.06
578.263	401.06
578.358	442.06
578.454	377.06
578.549	375.06
578.644	378.06
578.739	445.06
578.834	403.06
578.929	416.06
579.025	371.06
579.12	470.06
579.215	720.06
579.31	583.06
579.405	411.06
579.5	480.06
579.595	429.06
579.69	361.06
579.785	392.06
579.88	423.06
579.975	407.06
580.07	401.06
580.165	441.06
580.26	521.06
580.355	435.06
580.45	434.06
580.545	356.06
580.64	438.06
580.735	531.06
580.83	429.06
580.925	373.06
581.02	358.06
581.115	397.06
581.21	320.06
581.305	416.06
581.4	455.06
581.495	361.06
581.589	381.06
581.684	406.06
581.779	423.06
581.874	400.06
581.969	525.06
582.064	303.06
582.158	332.06
582.253	324.06
582.348	396.06
582.443	397.06
582.537	411.06
582.632	616.06
582.727	401.06
582.822	355.06
582.916	380.06
583.011	346.06
583.106	386.06
583.201	411.06
583.295	383.06
583.39	300.06
583.485	351.06
583.579	1867.06
583.674	553.06
583.769	599.06
583.863	440.06
583.958	366.06
584.052	290.06
584.147	380.06
584.242	301.06
584.336	340.06
584.431	530.06
584.525	303.06
584.62	474.06
584.714	431.06
584.809	414.06
584.903	356.06
584.998	392.06
585.092	323.06
585.187	373.06
585.281	317.06
585.376	421.06
585.47	363.06
585.565	362.06
585.659	313.06
585.754	321.06
585.848	369.06
585.942	326.06
586.037	340.06
586.131	1565.06
586.226	441.06
586.32	460.06
586.414	270.06
586.509	432.06
586.603	463.06
586.697	310.06
586.792	310.06
586.886	316.06
586.98	407.06
587.075	305.06
587.169	327.06
587.263	528.06
587.357	359.06
587.452	278.06
587.546	475.06
587.64	246.06
587.734	356.06
587.829	412.06
587.923	289.06
588.017	307.06
588.111	357.06
588.205	389.06
588.3	280.06
588.394	274.06
588.488	339.06
588.582	406.06
588.676	457.06
588.77	652.06
588.864	1211.06
588.958	1079.06
589.052	687.06
589.147	586.06
589.241	484.06
589.335	520.06
589.429	809.06
589.523	875.06
589.617	710.06
589.711	558.06
589.805	473.06
589.899	466.06
589.993	360.06
590.087	264.06
590.181	240.06
590.275	375.06
590.369	308.06
590.462	244.06
590.556	283.06
590.65	281.06
590.744	299.06
590.838	251.06
590.932	336.06
591.026	356.06
591.12	473.06
591.214	344.06
591.307	315.06
591.401	340.06
591.495	450.06
591.589	316.06
591.683	324.06
591.777	380.06
591.87	697.06
591.964	361.06
592.058	299.06
592.152	411.06
592.245	293.06
592.339	426.06
592.433	508.06
592.527	385.06
592.62	280.06
592.714	381.06
592.808	387.06
592.901	388.06
592.995	345.06
593.089	570.06
593.182	418.06
593.276	345.06
593.37	328.06
593.463	310.06
593.557	368.06
593.65	365.06
593.744	310.06
593.837	426.06
593.931	347.06
594.025	3613.06
594.118	673.06
594.212	361.06
594.305	291.06
594.399	364.06
594.492	707.06
594.586	387.06
594.679	272.06
594.773	311.06
594.866	390.06
594.96	326.06
595.053	268.06
595.146	339.06
595.24	280.06
595.333	247.06
595.427	223.06
595.52	255.06
595.614	408.06
595.707	324.06
595.8	316.06
595.894	287.06
595.987	262.06
596.08	265.06
596.174	657.06
596.267	410.06
596.36	439.06
596.454	416.06
596.547	378.06
596.64	275.06
596.733	220.06
596.827	364.06
596.92	273.06
597.013	203.06
597.106	183.06
597.2	227.06
597.293	261.06
597.386	503.06
597.479	248.06
597.572	348.06
597.666	218.06
597.759	242.06
597.852	402.06
597.945	239.06
598.038	234.06
598.131	210.06
598.224	276.06
598.317	351.06
598.411	282.06
598.504	246.06
598.597	284.06
598.69	223.06
598.783	265.06
598.876	296.06
598.969	257.06
599.062	236.06
599.155	299.06
599.248	220.06
599.341	279.06
599.434	259.06
599.527	292.06
599.62	203.06
599.713	256.06
599.806	256.06
599.899	416.06
599.991	224.06
600.084	436.06
600.177	206.06
600.27	235.06
600.363	429.06
600.456	241.06
600.549	283.06
600.642	172.06
600.734	226.06
600.827	232.06
600.92	365.06
601.013	229.06
601.106	308.06
601.199	266.06
601.291	154.06
601.384	240.06
601.477	444.06
601.57	328.06
601.662	216.06
601.755	227.06
601.848	277.06
601.94	174.06
602.033	370.06
602.126	287.06
602.219	209.06
602.311	342.06
602.404	260.06
602.497	242.06
602.589	231.06
602.682	295.06
602.774	239.06
602.867	271.06
602.96	296.06
603.052	296.06
603.145	252.06
603.237	262.06
603.33	279.06
603.422	365.06
603.515	184.06
603.608	345.06
603.7	226.06
603.793	219.06
603.885	304.06
603.978	219.06
604.07	188.06
604.163	203.06
604.255	268.06
604.347	162.06
604.44	185.06
604.532	299.06
604.625	234.06
604.717	226.06
604.81	330.06
604.902	200.06
604.994	207.06
605.087	244.06
605.179	195.06
605.271	232.06
605.364	236.06
605.456	302.06
605.548	239.06
605.641	249.06
605.733	227.06
605.825	260.06
605.918	151.06
606.01	416.06
606.102	692.06
606.194	271.06
606.287	408.06
606.379	192.06
606.471	242.06
606.563	300.06
606.655	295.06
606.748	295.06
606.84	230.06
606.932	327.06
607.024	212.06
607.116	153.06
607.208	226.06
607.301	279.06
607.393	243.06
607.485	264.06
607.577	276.06
607.669	343.06
607.761	335.06
607.853	525.06
607.945	204.06
608.037	197.06
608.129	266.06
608.221	212.06
608.313	152.06
608.405	360.06
608.497	239.06
608.589	206.06
608.681	299.06
608.773	257.06
608.865	215.06
608.957	299.06
609.049	248.06
609.141	287.06
609.233	176.06
609.325	207.06
609.417	111.06
609.509	267.06
609.601	388.06
609.693	319.06
609.784	208.06
609.876	270.06
609.968	233.06
610.06	2770.06
610.152	541.06
610.244	508.06
610.335	206.06
610.427	232.06
610.519	242.06
610.611	245.06
610.702	202.06
610.794	306.06
610.886	276.06
610.978	266.06
611.069	724.06
611.161	260.06
611.253	298.06
611.344	236.06
611.436	192.06
611.528	251.06
611.62	164.06
611.711	258.06
611.803	179.06
611.894	154.06
611.986	247.06
612.078	204.06
612.169	199.06
612.261	212.06
612.352	163.06
612.444	108.06
612.536	317.06
612.627	234.06
612.719	139.06
612.81	126.06
612.902	162.06
612.993	167.06
613.085	151.06
613.176	116.06
613.268	148.06
613.359	124.06
613.451	192.06
613.542	173.06
613.634	133.06
613.725	219.06
613.816	261.06
613.908	113.06
613.999	112.06
614.091	113.06
614.182	17.06
614.273	138.06
614.365	129.06
614.456	30.06
614.547	76.06
614.639	84.06
614.73	95.06
614.821	145.06
614.913	75.06
615.004	24.06
615.095	14.06
615.187	18.06
