Data from 21g_HRC06701__86__330.txt Node

Date: Thu Apr 18 02:09:05 CDT 2024
User: Estudiantes 2
Spectrometer: HR+C0670
Trigger mode: 4
Integration Time (sec): 1.000000E0
Scans to average: 1
Electric dark correction enabled: true
Nonlinearity correction enabled: false
Boxcar width: 0
XAxis mode: Wavelengths
Number of Pixels in Spectrum: 2048
>>>>>Begin Spectral Data<<<<<
407.81	-137.94
407.921	-137.94
408.032	-137.94
408.143	-122.94
408.254	-149.94
408.365	8.06
408.476	304.06
408.587	-11.94
408.699	-15.94
408.81	25.06
408.921	-49.94
409.032	-38.94
409.143	61.06
409.254	26.06
409.365	76.06
409.476	-35.94
409.587	36.06
409.698	27.06
409.809	64.06
409.92	8.06
410.031	-49.94
410.142	48.06
410.253	47.06
410.364	-19.94
410.475	597.06
410.585	3027.06
410.696	3285.06
410.807	3248.06
410.918	3301.06
411.029	3350.06
411.14	3337.06
411.251	3345.06
411.362	3414.06
411.472	3405.06
411.583	3311.06
411.694	3518.06
411.805	3392.06
411.916	3499.06
412.026	3584.06
412.137	3441.06
412.248	3434.06
412.359	3418.06
412.47	3276.06
412.58	3190.06
412.691	3357.06
412.802	3318.06
412.912	3256.06
413.023	3259.06
413.134	3343.06
413.245	3386.06
413.355	3331.06
413.466	3314.06
413.577	3328.06
413.687	3397.06
413.798	3216.06
413.909	3435.06
414.019	3395.06
414.13	3501.06
414.24	3467.06
414.351	3415.06
414.462	3630.06
414.572	3439.06
414.683	3457.06
414.793	3384.06
414.904	3762.06
415.014	3369.06
415.125	3346.06
415.235	3487.06
415.346	3644.06
415.456	3504.06
415.567	3403.06
415.677	3486.06
415.788	3428.06
415.898	3317.06
416.009	3334.06
416.119	3397.06
416.23	3401.06
416.34	3363.06
416.45	3437.06
416.561	4205.06
416.671	3531.06
416.782	3429.06
416.892	3465.06
417.002	3424.06
417.113	3636.06
417.223	3489.06
417.333	3473.06
417.444	3613.06
417.554	3588.06
417.664	3675.06
417.775	3573.06
417.885	3713.06
417.995	3631.06
418.106	3915.06
418.216	3812.06
418.326	3894.06
418.436	3927.06
418.547	3972.06
418.657	3907.06
418.767	4026.06
418.877	4038.06
418.987	4064.06
419.098	4000.06
419.208	4079.06
419.318	4059.06
419.428	4117.06
419.538	4044.06
419.648	4023.06
419.759	3898.06
419.869	4040.06
419.979	4049.06
420.089	4013.06
420.199	3963.06
420.309	4061.06
420.419	3994.06
420.529	4073.06
420.639	4500.06
420.749	4177.06
420.859	4164.06
420.969	4193.06
421.079	4419.06
421.189	4152.06
421.299	4174.06
421.409	4147.06
421.519	4322.06
421.629	4391.06
421.739	4299.06
421.849	4272.06
421.959	4279.06
422.069	4379.06
422.179	4367.06
422.289	4446.06
422.399	4557.06
422.509	4725.06
422.619	7104.06
422.729	4831.06
422.838	4691.06
422.948	4803.06
423.058	4778.06
423.168	4839.06
423.278	4810.06
423.388	4880.06
423.498	5163.06
423.607	5072.06
423.717	5396.06
423.827	5315.06
423.937	5186.06
424.046	5229.06
424.156	5341.06
424.266	5160.06
424.376	5492.06
424.485	5370.06
424.595	5242.06
424.705	5241.06
424.815	5247.06
424.924	5716.06
425.034	5358.06
425.144	5212.06
425.253	5224.06
425.363	5416.06
425.473	5293.06
425.582	5073.06
425.692	5248.06
425.801	5196.06
425.911	5550.06
426.021	5407.06
426.13	5491.06
426.24	5645.06
426.349	5483.06
426.459	5422.06
426.568	5272.06
426.678	5562.06
426.787	5548.06
426.897	5379.06
427.006	5518.06
427.116	5581.06
427.225	5582.06
427.335	5744.06
427.444	5584.06
427.554	5627.06
427.663	5718.06
427.773	5628.06
427.882	5800.06
427.992	5721.06
428.101	5767.06
428.21	5769.06
428.32	5844.06
428.429	5703.06
428.539	6186.06
428.648	5934.06
428.757	5816.06
428.867	6048.06
428.976	6220.06
429.085	5974.06
429.195	6133.06
429.304	5960.06
429.413	6083.06
429.523	6099.06
429.632	6159.06
429.741	6254.06
429.85	6120.06
429.96	6249.06
430.069	6250.06
430.178	6305.06
430.287	6675.06
430.397	6450.06
430.506	6418.06
430.615	6447.06
430.724	6447.06
430.833	6531.06
430.943	6577.06
431.052	6594.06
431.161	6669.06
431.27	6747.06
431.379	6891.06
431.488	7165.06
431.597	7101.06
431.706	7291.06
431.816	7214.06
431.925	7077.06
432.034	7066.06
432.143	7167.06
432.252	7032.06
432.361	7136.06
432.47	7075.06
432.579	7076.06
432.688	7032.06
432.797	7218.06
432.906	6894.06
433.015	7098.06
433.124	7580.06
433.233	7205.06
433.342	7128.06
433.451	7362.06
433.56	7324.06
433.669	7260.06
433.778	7230.06
433.886	7541.06
433.995	7436.06
434.104	7695.06
434.213	7805.06
434.322	7792.06
434.431	8221.06
434.54	8381.06
434.649	8528.06
434.757	8355.06
434.866	8301.06
434.975	8254.06
435.084	7966.06
435.193	7724.06
435.301	7889.06
435.41	7831.06
435.519	7834.06
435.628	7195.06
435.737	7076.06
435.845	7025.06
435.954	6937.06
436.063	6904.06
436.171	6932.06
436.28	6900.06
436.389	7148.06
436.498	6893.06
436.606	7000.06
436.715	7134.06
436.823	6743.06
436.932	6787.06
437.041	6706.06
437.149	6529.06
437.258	6409.06
437.367	6468.06
437.475	6404.06
437.584	6701.06
437.692	6439.06
437.801	8000.06
437.91	6324.06
438.018	6316.06
438.127	6367.06
438.235	6419.06
438.344	6272.06
438.452	6389.06
438.561	6270.06
438.669	6235.06
438.778	6189.06
438.886	6178.06
438.995	6155.06
439.103	6306.06
439.212	6284.06
439.32	6250.06
439.428	6350.06
439.537	6382.06
439.645	6481.06
439.754	6388.06
439.862	6362.06
439.97	6503.06
440.079	6584.06
440.187	6418.06
440.295	6714.06
440.404	6557.06
440.512	6562.06
440.62	6727.06
440.729	6678.06
440.837	6921.06
440.945	7701.06
441.054	7170.06
441.162	7266.06
441.27	7613.06
441.378	7519.06
441.487	7479.06
441.595	7984.06
441.703	7471.06
441.811	7411.06
441.92	7380.06
442.028	7107.06
442.136	7156.06
442.244	7179.06
442.352	7274.06
442.461	6987.06
442.569	6967.06
442.677	7175.06
442.785	7201.06
442.893	7124.06
443.001	7128.06
443.109	7105.06
443.217	7182.06
443.325	7143.06
443.434	7800.06
443.542	7629.06
443.65	7432.06
443.758	7708.06
443.866	7516.06
443.974	8137.06
444.082	8027.06
444.19	8226.06
444.298	8499.06
444.406	8808.06
444.514	9087.06
444.622	9225.06
444.73	9096.06
444.838	8728.06
444.946	8504.06
445.054	8169.06
445.161	8050.06
445.269	7627.06
445.377	7658.06
445.485	7555.06
445.593	7283.06
445.701	7524.06
445.809	7378.06
445.917	7087.06
446.025	7116.06
446.132	7154.06
446.24	7150.06
446.348	7194.06
446.456	6937.06
446.564	7058.06
446.671	7052.06
446.779	6989.06
446.887	6960.06
446.995	6819.06
447.102	6810.06
447.21	6926.06
447.318	6772.06
447.426	6712.06
447.533	7108.06
447.641	8005.06
447.749	6735.06
447.856	6735.06
447.964	6810.06
448.072	6869.06
448.179	6733.06
448.287	6898.06
448.395	6828.06
448.502	6705.06
448.61	6849.06
448.718	6787.06
448.825	6831.06
448.933	6846.06
449.04	6894.06
449.148	6893.06
449.256	6825.06
449.363	6908.06
449.471	7026.06
449.578	7140.06
449.686	7198.06
449.793	7204.06
449.901	7122.06
450.008	7273.06
450.116	7303.06
450.223	7375.06
450.331	7516.06
450.438	7612.06
450.546	7520.06
450.653	7707.06
450.76	7854.06
450.868	7641.06
450.975	8034.06
451.083	7900.06
451.19	7871.06
451.297	7859.06
451.405	8080.06
451.512	7979.06
451.619	8084.06
451.727	8174.06
451.834	8065.06
451.941	8017.06
452.049	8127.06
452.156	8103.06
452.263	8148.06
452.371	8183.06
452.478	8237.06
452.585	8336.06
452.692	8317.06
452.8	8451.06
452.907	8538.06
453.014	8420.06
453.121	8411.06
453.229	8373.06
453.336	8628.06
453.443	8601.06
453.55	8589.06
453.657	8515.06
453.765	8709.06
453.872	8631.06
453.979	8761.06
454.086	8847.06
454.193	8962.06
454.3	8623.06
454.407	8937.06
454.514	8963.06
454.621	8916.06
454.729	8888.06
454.836	8834.06
454.943	9075.06
455.05	8996.06
455.157	9085.06
455.264	9081.06
455.371	9261.06
455.478	9152.06
455.585	9675.06
455.692	9420.06
455.799	9537.06
455.906	9400.06
456.013	9299.06
456.12	9265.06
456.227	9449.06
456.334	9706.06
456.44	9743.06
456.547	9741.06
456.654	9575.06
456.761	9772.06
456.868	9773.06
456.975	9962.06
457.082	9756.06
457.189	9890.06
457.296	9965.06
457.402	9955.06
457.509	9845.06
457.616	10194.06
457.723	10612.06
457.83	10425.06
457.936	10471.06
458.043	10915.06
458.15	10681.06
458.257	10943.06
458.363	11069.06
458.47	11421.06
458.577	11593.06
458.684	11786.06
458.79	12051.06
458.897	12332.06
459.004	12630.06
459.11	12613.06
459.217	12570.06
459.324	12842.06
459.43	13455.06
459.537	13604.06
459.644	13617.06
459.75	13826.06
459.857	14565.06
459.964	14565.06
460.07	14565.06
460.177	14565.06
460.283	14565.06
460.39	14565.06
460.496	14565.06
460.603	14565.06
460.71	14565.06
460.816	14565.06
460.923	14565.06
461.029	14565.06
461.136	14565.06
461.242	14565.06
461.349	14565.06
461.455	14565.06
461.562	14565.06
461.668	14565.06
461.774	14565.06
461.881	14565.06
461.987	14565.06
462.094	14565.06
462.2	14565.06
462.307	14565.06
462.413	14565.06
462.519	14565.06
462.626	14565.06
462.732	14565.06
462.838	14565.06
462.945	14565.06
463.051	14565.06
463.157	14565.06
463.264	14565.06
463.37	14565.06
463.476	14565.06
463.583	14565.06
463.689	14565.06
463.795	14565.06
463.901	14565.06
464.008	14565.06
464.114	14565.06
464.22	14565.06
464.326	14565.06
464.433	14565.06
464.539	14565.06
464.645	14565.06
464.751	14565.06
464.857	14565.06
464.963	14549.06
465.07	13850.06
465.176	13433.06
465.282	13033.06
465.388	12706.06
465.494	12350.06
465.6	12048.06
465.706	11703.06
465.812	11704.06
465.918	11774.06
466.024	11501.06
466.131	11394.06
466.237	10992.06
466.343	10871.06
466.449	10616.06
466.555	10624.06
466.661	10434.06
466.767	10243.06
466.873	10308.06
466.979	10521.06
467.085	10106.06
467.191	10331.06
467.296	10254.06
467.402	10276.06
467.508	10044.06
467.614	10122.06
467.72	9761.06
467.826	9638.06
467.932	9474.06
468.038	9321.06
468.144	9304.06
468.25	9233.06
468.355	9316.06
468.461	9400.06
468.567	9225.06
468.673	9212.06
468.779	9342.06
468.885	9136.06
468.99	9178.06
469.096	9227.06
469.202	9311.06
469.308	9504.06
469.413	9542.06
469.519	9419.06
469.625	9524.06
469.731	9613.06
469.836	9682.06
469.942	9724.06
470.048	9622.06
470.153	9913.06
470.259	9802.06
470.365	9917.06
470.47	9821.06
470.576	9634.06
470.682	9464.06
470.787	9438.06
470.893	9179.06
470.999	9209.06
471.104	9124.06
471.21	8833.06
471.315	8657.06
471.421	8667.06
471.527	8868.06
471.632	8565.06
471.738	8365.06
471.843	8335.06
471.949	8324.06
472.054	8333.06
472.16	8205.06
472.265	8114.06
472.371	8082.06
472.476	8048.06
472.582	8045.06
472.687	7863.06
472.793	7898.06
472.898	7875.06
473.003	7665.06
473.109	7646.06
473.214	7578.06
473.32	7624.06
473.425	7769.06
473.53	7653.06
473.636	7693.06
473.741	7466.06
473.847	7578.06
473.952	7690.06
474.057	7688.06
474.163	7615.06
474.268	7704.06
474.373	7577.06
474.478	7538.06
474.584	7602.06
474.689	7692.06
474.794	7626.06
474.9	7979.06
475.005	7584.06
475.11	7816.06
475.215	7580.06
475.321	7737.06
475.426	7860.06
475.531	7692.06
475.636	7713.06
475.741	7619.06
475.846	7839.06
475.952	8030.06
476.057	7832.06
476.162	7946.06
476.267	8035.06
476.372	8148.06
476.477	7969.06
476.582	8184.06
476.687	7993.06
476.793	8151.06
476.898	8118.06
477.003	8305.06
477.108	8299.06
477.213	8311.06
477.318	8558.06
477.423	8524.06
477.528	8825.06
477.633	8836.06
477.738	9059.06
477.843	8974.06
477.948	9224.06
478.053	9155.06
478.158	9298.06
478.263	9429.06
478.368	9497.06
478.473	9609.06
478.578	9706.06
478.682	9728.06
478.787	9911.06
478.892	9719.06
478.997	9979.06
479.102	9713.06
479.207	9690.06
479.312	9808.06
479.417	9940.06
479.521	9869.06
479.626	10132.06
479.731	10156.06
479.836	10202.06
479.941	10456.06
480.045	10741.06
480.15	10856.06
480.255	10951.06
480.36	11041.06
480.465	10927.06
480.569	10789.06
480.674	10483.06
480.779	10364.06
480.883	10286.06
480.988	10256.06
481.093	10182.06
481.197	9971.06
481.302	9994.06
481.407	10072.06
481.511	11417.06
481.616	10103.06
481.721	9978.06
481.825	10182.06
481.93	9930.06
482.035	9959.06
482.139	10113.06
482.244	10126.06
482.348	10206.06
482.453	10185.06
482.557	10386.06
482.662	10258.06
482.767	10374.06
482.871	10337.06
482.976	10443.06
483.08	10597.06
483.185	10724.06
483.289	10540.06
483.394	10807.06
483.498	10816.06
483.603	10798.06
483.707	10882.06
483.811	11264.06
483.916	11098.06
484.02	11159.06
484.125	11476.06
484.229	11547.06
484.333	11823.06
484.438	11790.06
484.542	11696.06
484.647	11863.06
484.751	12066.06
484.855	12125.06
484.96	12071.06
485.064	12305.06
485.168	12420.06
485.273	12352.06
485.377	12432.06
485.481	12874.06
485.585	12674.06
485.69	12673.06
485.794	12934.06
485.898	12870.06
486.002	12893.06
486.107	12992.06
486.211	12795.06
486.315	12854.06
486.419	13028.06
486.524	12935.06
486.628	12997.06
486.732	12984.06
486.836	13057.06
486.94	13072.06
487.044	13095.06
487.148	13095.06
487.253	13074.06
487.357	13146.06
487.461	13277.06
487.565	13060.06
487.669	12993.06
487.773	13057.06
487.877	13196.06
487.981	13097.06
488.085	12968.06
488.189	13086.06
488.293	13089.06
488.397	13517.06
488.501	13230.06
488.605	12960.06
488.709	13027.06
488.813	13105.06
488.917	13130.06
489.021	12979.06
489.125	13301.06
489.229	13150.06
489.333	13319.06
489.437	13297.06
489.541	13317.06
489.645	13253.06
489.749	13315.06
489.853	13325.06
489.956	13288.06
490.06	13263.06
490.164	13268.06
490.268	13158.06
490.372	13186.06
490.476	13316.06
490.579	13268.06
490.683	13770.06
490.787	13310.06
490.891	13092.06
490.995	13310.06
491.098	13130.06
491.202	13179.06
491.306	13159.06
491.41	13227.06
491.513	13256.06
491.617	13257.06
491.721	13297.06
491.824	13380.06
491.928	13160.06
492.032	13325.06
492.136	13148.06
492.239	13329.06
492.343	13382.06
492.446	13814.06
492.55	13391.06
492.654	13319.06
492.757	13168.06
492.861	13255.06
492.965	13236.06
493.068	13401.06
493.172	13384.06
493.275	13299.06
493.379	13172.06
493.482	13545.06
493.586	13580.06
493.689	13551.06
493.793	13306.06
493.896	13634.06
494	13465.06
494.103	13564.06
494.207	13751.06
494.31	13906.06
494.414	13518.06
494.517	13307.06
494.621	13474.06
494.724	13252.06
494.828	13365.06
494.931	13046.06
495.034	13123.06
495.138	13367.06
495.241	13087.06
495.345	13971.06
495.448	13246.06
495.551	13195.06
495.655	13175.06
495.758	13102.06
495.861	13149.06
495.965	13307.06
496.068	13251.06
496.171	13375.06
496.274	13357.06
496.378	13401.06
496.481	13482.06
496.584	13566.06
496.687	13681.06
496.791	13680.06
496.894	13822.06
496.997	13860.06
497.1	14018.06
497.204	14097.06
497.307	14182.06
497.41	14540.06
497.513	14565.06
497.616	14565.06
497.719	14565.06
497.823	14565.06
497.926	14565.06
498.029	14565.06
498.132	14565.06
498.235	14565.06
498.338	14565.06
498.441	14565.06
498.544	14565.06
498.647	14565.06
498.75	14565.06
498.853	14565.06
498.956	14565.06
499.059	14565.06
499.163	14565.06
499.266	14565.06
499.369	14565.06
499.471	14565.06
499.574	14565.06
499.677	14565.06
499.78	14565.06
499.883	14565.06
499.986	14565.06
500.089	14565.06
500.192	14565.06
500.295	14565.06
500.398	14565.06
500.501	14565.06
500.604	14565.06
500.707	14565.06
500.809	14565.06
500.912	14565.06
501.015	14565.06
501.118	14565.06
501.221	14565.06
501.324	14565.06
501.426	14565.06
501.529	14565.06
501.632	14565.06
501.735	14565.06
501.837	14565.06
501.94	14565.06
502.043	14565.06
502.146	14565.06
502.248	14565.06
502.351	14565.06
502.454	14565.06
502.557	14565.06
502.659	14565.06
502.762	14147.06
502.865	13931.06
502.967	13784.06
503.07	13395.06
503.173	13287.06
503.275	13042.06
503.378	12766.06
503.48	12689.06
503.583	12848.06
503.686	12672.06
503.788	12933.06
503.891	12721.06
503.993	12911.06
504.096	12760.06
504.198	12973.06
504.301	13100.06
504.403	13142.06
504.506	12916.06
504.608	12542.06
504.711	12222.06
504.813	11714.06
504.916	11489.06
505.018	11120.06
505.121	10774.06
505.223	10761.06
505.326	10571.06
505.428	10556.06
505.531	10211.06
505.633	10277.06
505.735	9985.06
505.838	10035.06
505.94	9865.06
506.042	9613.06
506.145	9578.06
506.247	9738.06
506.35	9455.06
506.452	9415.06
506.554	9586.06
506.656	9396.06
506.759	9453.06
506.861	9288.06
506.963	9263.06
507.066	9223.06
507.168	9181.06
507.27	9211.06
507.372	9065.06
507.475	9139.06
507.577	8988.06
507.679	8971.06
507.781	8717.06
507.883	8831.06
507.986	8841.06
508.088	8671.06
508.19	8803.06
508.292	8727.06
508.394	8668.06
508.496	8532.06
508.598	8653.06
508.701	8580.06
508.803	8537.06
508.905	8401.06
509.007	8577.06
509.109	8561.06
509.211	8531.06
509.313	8450.06
509.415	8449.06
509.517	8466.06
509.619	8387.06
509.721	8365.06
509.823	8260.06
509.925	8516.06
510.027	8425.06
510.129	8339.06
510.231	8476.06
510.333	8335.06
510.435	8213.06
510.537	8412.06
510.639	8406.06
510.741	8319.06
510.843	8407.06
510.945	8149.06
511.047	8277.06
511.148	8332.06
511.25	8229.06
511.352	8290.06
511.454	8165.06
511.556	8532.06
511.658	8379.06
511.76	8353.06
511.861	8467.06
511.963	8413.06
512.065	8396.06
512.167	8199.06
512.268	8569.06
512.37	8499.06
512.472	8360.06
512.574	8499.06
512.676	8426.06
512.777	8232.06
512.879	8337.06
512.981	8397.06
513.082	8445.06
513.184	8446.06
513.286	9076.06
513.387	8580.06
513.489	8724.06
513.591	8596.06
513.692	8734.06
513.794	8647.06
513.896	8600.06
513.997	8625.06
514.099	8749.06
514.2	8880.06
514.302	8856.06
514.404	8792.06
514.505	8832.06
514.607	9039.06
514.708	8970.06
514.81	9129.06
514.911	9207.06
515.013	9172.06
515.114	9352.06
515.216	9301.06
515.317	9541.06
515.419	9468.06
515.52	9769.06
515.622	9555.06
515.723	9768.06
515.825	10074.06
515.926	10041.06
516.027	9996.06
516.129	10197.06
516.23	10529.06
516.332	10610.06
516.433	10796.06
516.534	11138.06
516.636	11162.06
516.737	11474.06
516.838	13021.06
516.94	12289.06
517.041	12494.06
517.142	12826.06
517.244	13169.06
517.345	13186.06
517.446	13388.06
517.547	13625.06
517.649	13307.06
517.75	13380.06
517.851	13450.06
517.952	13353.06
518.054	12975.06
518.155	13004.06
518.256	12409.06
518.357	12294.06
518.458	11948.06
518.56	11739.06
518.661	11567.06
518.762	11331.06
518.863	11467.06
518.964	11176.06
519.065	10963.06
519.166	10803.06
519.268	10737.06
519.369	10925.06
519.47	10562.06
519.571	10450.06
519.672	10314.06
519.773	10301.06
519.874	10334.06
519.975	10280.06
520.076	10146.06
520.177	10242.06
520.278	10107.06
520.379	10133.06
520.48	9896.06
520.581	9970.06
520.682	9993.06
520.783	9996.06
520.884	10115.06
520.985	9872.06
521.086	9882.06
521.187	9903.06
521.288	9758.06
521.389	9906.06
521.489	9895.06
521.59	9630.06
521.691	9706.06
521.792	9821.06
521.893	9868.06
521.994	9897.06
522.095	9813.06
522.195	9803.06
522.296	9772.06
522.397	9714.06
522.498	9677.06
522.599	9706.06
522.699	9864.06
522.8	9717.06
522.901	9690.06
523.002	9634.06
523.102	10077.06
523.203	9650.06
523.304	9808.06
523.405	9788.06
523.505	9813.06
523.606	9642.06
523.707	9707.06
523.807	9754.06
523.908	9718.06
524.009	9824.06
524.109	9891.06
524.21	9720.06
524.31	9852.06
524.411	9918.06
524.512	9931.06
524.612	9860.06
524.713	10004.06
524.813	9833.06
524.914	10075.06
525.014	14565.06
525.115	10060.06
525.216	9827.06
525.316	9847.06
525.417	9964.06
525.517	9803.06
525.618	9751.06
525.718	9895.06
525.819	9864.06
525.919	9955.06
526.019	10005.06
526.12	10026.06
526.22	10041.06
526.321	9934.06
526.421	9906.06
526.522	9918.06
526.622	9886.06
526.722	9928.06
526.823	9980.06
526.923	9991.06
527.023	10050.06
527.124	9853.06
527.224	9897.06
527.324	9956.06
527.425	9966.06
527.525	9823.06
527.625	9937.06
527.726	9959.06
527.826	9995.06
527.926	9881.06
528.026	10065.06
528.127	9825.06
528.227	9853.06
528.327	9927.06
528.427	9868.06
528.528	9960.06
528.628	10053.06
528.728	9850.06
528.828	9993.06
528.928	10012.06
529.029	9845.06
529.129	9868.06
529.229	9897.06
529.329	9961.06
529.429	9908.06
529.529	9963.06
529.629	9962.06
529.729	9912.06
529.829	9995.06
529.93	9794.06
530.03	9834.06
530.13	9898.06
530.23	9909.06
530.33	10015.06
530.43	9901.06
530.53	9914.06
530.63	9963.06
530.73	9839.06
530.83	9692.06
530.93	9740.06
531.03	9693.06
531.13	9768.06
531.23	9753.06
531.33	9812.06
531.429	9822.06
531.529	9878.06
531.629	9732.06
531.729	9568.06
531.829	9656.06
531.929	9687.06
532.029	9775.06
532.129	9735.06
532.229	9836.06
532.328	9679.06
532.428	9683.06
532.528	9494.06
532.628	9588.06
532.728	9723.06
532.827	9451.06
532.927	9657.06
533.027	9477.06
533.127	9563.06
533.227	9516.06
533.326	9437.06
533.426	9361.06
533.526	9463.06
533.625	9525.06
533.725	9588.06
533.825	9454.06
533.924	9243.06
534.024	9144.06
534.124	9174.06
534.223	9207.06
534.323	9655.06
534.423	9109.06
534.522	9153.06
534.622	8983.06
534.722	9081.06
534.821	9083.06
534.921	8827.06
535.02	8846.06
535.12	8937.06
535.219	9043.06
535.319	8772.06
535.419	8768.06
535.518	8737.06
535.618	8711.06
535.717	8846.06
535.817	8543.06
535.916	8477.06
536.016	8523.06
536.115	8484.06
536.215	8454.06
536.314	8371.06
536.413	8211.06
536.513	8343.06
536.612	8258.06
536.712	8134.06
536.811	8228.06
536.91	8077.06
537.01	8173.06
537.109	8191.06
537.209	8030.06
537.308	8042.06
537.407	8089.06
537.507	8116.06
537.606	7992.06
537.705	8040.06
537.805	7903.06
537.904	7929.06
538.003	7885.06
538.102	8087.06
538.202	7812.06
538.301	7954.06
538.4	7991.06
538.499	7840.06
538.599	7768.06
538.698	8012.06
538.797	7711.06
538.896	7776.06
538.995	7880.06
539.095	7732.06
539.194	7859.06
539.293	7660.06
539.392	7632.06
539.491	7617.06
539.59	7543.06
539.689	7765.06
539.789	7572.06
539.888	7511.06
539.987	7467.06
540.086	7471.06
540.185	7429.06
540.284	7404.06
540.383	7383.06
540.482	7324.06
540.581	7262.06
540.68	7360.06
540.779	7457.06
540.878	7402.06
540.977	7561.06
541.076	7436.06
541.175	7346.06
541.274	7551.06
541.373	7265.06
541.472	7354.06
541.571	7178.06
541.67	8865.06
541.769	7307.06
541.868	7239.06
541.966	7215.06
542.065	7151.06
542.164	7130.06
542.263	7159.06
542.362	7094.06
542.461	7171.06
542.56	7162.06
542.658	7140.06
542.757	6983.06
542.856	7009.06
542.955	7031.06
543.054	7058.06
543.152	7272.06
543.251	7011.06
543.35	7180.06
543.449	7070.06
543.547	7024.06
543.646	6944.06
543.745	7051.06
543.843	7089.06
543.942	7036.06
544.041	7044.06
544.14	7138.06
544.238	6948.06
544.337	7314.06
544.436	7178.06
544.534	7306.06
544.633	7052.06
544.731	7226.06
544.83	7359.06
544.929	7205.06
545.027	7216.06
545.126	7176.06
545.224	7350.06
545.323	7199.06
545.421	7203.06
545.52	7303.06
545.619	7237.06
545.717	7329.06
545.816	7140.06
545.914	7240.06
546.013	7435.06
546.111	7504.06
546.209	7083.06
546.308	7150.06
546.406	7133.06
546.505	7068.06
546.603	7094.06
546.702	7093.06
546.8	7169.06
546.899	7098.06
546.997	7114.06
547.095	7209.06
547.194	7108.06
547.292	7123.06
547.39	7341.06
547.489	7086.06
547.587	7424.06
547.685	7130.06
547.784	7388.06
547.882	7292.06
547.98	7277.06
548.079	7347.06
548.177	7139.06
548.275	7131.06
548.373	7508.06
548.472	7131.06
548.57	7171.06
548.668	7436.06
548.766	6996.06
548.864	7313.06
548.963	7353.06
549.061	7399.06
549.159	7230.06
549.257	7502.06
549.355	7528.06
549.454	7256.06
549.552	7587.06
549.65	7500.06
549.748	7282.06
549.846	7263.06
549.944	7370.06
550.042	7214.06
550.14	7158.06
550.238	7247.06
550.336	7218.06
550.434	7153.06
550.532	7104.06
550.631	7144.06
550.729	7087.06
550.827	7122.06
550.925	7064.06
551.023	6972.06
551.121	7044.06
551.218	7107.06
551.316	6955.06
551.414	7131.06
551.512	7163.06
551.61	7259.06
551.708	7144.06
551.806	7343.06
551.904	7320.06
552.002	7357.06
552.1	7474.06
552.198	7525.06
552.296	7671.06
552.393	7833.06
552.491	8049.06
552.589	8024.06
552.687	8056.06
552.785	8071.06
552.882	8192.06
552.98	8472.06
553.078	8393.06
553.176	8412.06
553.274	8192.06
553.371	8140.06
553.469	8270.06
553.567	8047.06
553.665	7957.06
553.762	8489.06
553.86	7947.06
553.958	7846.06
554.055	7759.06
554.153	7634.06
554.251	7420.06
554.348	7446.06
554.446	7335.06
554.544	7320.06
554.641	7670.06
554.739	7247.06
554.837	7218.06
554.934	7172.06
555.032	7235.06
555.129	6958.06
555.227	7285.06
555.324	10746.06
555.422	7060.06
555.519	6818.06
555.617	6791.06
555.715	6609.06
555.812	7200.06
555.91	6669.06
556.007	6794.06
556.105	6535.06
556.202	6724.06
556.299	6612.06
556.397	6644.06
556.494	6599.06
556.592	6648.06
556.689	6661.06
556.787	6535.06
556.884	6412.06
556.981	6585.06
557.079	6445.06
557.176	6498.06
557.273	6506.06
557.371	6750.06
557.468	6539.06
557.566	6605.06
557.663	6504.06
557.76	6561.06
557.857	6529.06
557.955	6491.06
558.052	6596.06
558.149	6682.06
558.247	6792.06
558.344	6497.06
558.441	6466.06
558.538	6475.06
558.636	6486.06
558.733	6617.06
558.83	6541.06
558.927	6605.06
559.024	6586.06
559.122	6568.06
559.219	6500.06
559.316	6633.06
559.413	6689.06
559.51	6424.06
559.607	6587.06
559.704	6640.06
559.801	6732.06
559.899	6475.06
559.996	6789.06
560.093	6601.06
560.19	6530.06
560.287	6667.06
560.384	6875.06
560.481	6644.06
560.578	6596.06
560.675	6637.06
560.772	6762.06
560.869	6654.06
560.966	6833.06
561.063	6803.06
561.16	6807.06
561.257	6769.06
561.354	6803.06
561.451	6747.06
561.548	6751.06
561.645	7043.06
561.742	6837.06
561.838	6736.06
561.935	6917.06
562.032	7022.06
562.129	6812.06
562.226	6876.06
562.323	6933.06
562.42	6932.06
562.516	6922.06
562.613	6985.06
562.71	6967.06
562.807	7869.06
562.904	7098.06
563	7017.06
563.097	7053.06
563.194	7249.06
563.291	7171.06
563.387	7210.06
563.484	7288.06
563.581	7290.06
563.678	7322.06
563.774	7759.06
563.871	7482.06
563.968	7488.06
564.064	7580.06
564.161	7731.06
564.258	7619.06
564.354	7819.06
564.451	7819.06
564.548	8003.06
564.644	7978.06
564.741	8059.06
564.837	8163.06
564.934	8405.06
565.031	8272.06
565.127	8626.06
565.224	8638.06
565.32	9039.06
565.417	8999.06
565.513	9247.06
565.61	9454.06
565.706	9785.06
565.803	9922.06
565.899	10189.06
565.996	10696.06
566.092	11020.06
566.189	11259.06
566.285	11812.06
566.382	12195.06
566.478	12745.06
566.574	13010.06
566.671	13046.06
566.767	13016.06
566.864	13022.06
566.96	13181.06
567.056	13305.06
567.153	13834.06
567.249	14038.06
567.345	14536.06
567.442	14565.06
567.538	14565.06
567.634	14565.06
567.731	14565.06
567.827	14565.06
567.923	14565.06
568.019	14565.06
568.116	13993.06
568.212	13379.06
568.308	12735.06
568.404	12258.06
568.501	11915.06
568.597	11439.06
568.693	10924.06
568.789	11245.06
568.885	10297.06
568.982	9944.06
569.078	9581.06
569.174	9475.06
569.27	9192.06
569.366	9090.06
569.462	8762.06
569.558	8647.06
569.655	8560.06
569.751	8432.06
569.847	8307.06
569.943	8170.06
570.039	8217.06
570.135	8818.06
570.231	8260.06
570.327	8412.06
570.423	8225.06
570.519	8203.06
570.615	8071.06
570.711	8349.06
570.807	8407.06
570.903	8079.06
570.999	8184.06
571.095	8155.06
571.191	8029.06
571.287	7829.06
571.383	7782.06
571.479	7491.06
571.574	7487.06
571.67	7392.06
571.766	7486.06
571.862	7013.06
571.958	7018.06
572.054	7057.06
572.15	6908.06
572.246	6786.06
572.341	6922.06
572.437	6668.06
572.533	6720.06
572.629	6831.06
572.725	6675.06
572.82	6608.06
572.916	6705.06
573.012	6507.06
573.108	6663.06
573.203	6544.06
573.299	6416.06
573.395	6360.06
573.49	6319.06
573.586	6340.06
573.682	6283.06
573.778	6416.06
573.873	6380.06
573.969	6191.06
574.065	6207.06
574.16	6324.06
574.256	6291.06
574.351	6333.06
574.447	6128.06
574.543	6215.06
574.638	6333.06
574.734	6286.06
574.829	6501.06
574.925	6106.06
575.02	6059.06
575.116	6108.06
575.212	6070.06
575.307	6112.06
575.403	5870.06
575.498	5914.06
575.594	5820.06
575.689	5855.06
575.784	5888.06
575.88	5796.06
575.975	5773.06
576.071	5815.06
576.166	5634.06
576.262	5701.06
576.357	5755.06
576.452	5868.06
576.548	5853.06
576.643	5664.06
576.739	5668.06
576.834	5636.06
576.929	5617.06
577.025	5849.06
577.12	5451.06
577.215	5456.06
577.311	5595.06
577.406	5495.06
577.501	5578.06
577.597	5344.06
577.692	5472.06
577.787	5447.06
577.882	5300.06
577.978	5264.06
578.073	5198.06
578.168	5162.06
578.263	5145.06
578.358	5132.06
578.454	5143.06
578.549	5101.06
578.644	5111.06
578.739	5193.06
578.834	5106.06
578.929	4956.06
579.025	5080.06
579.12	5117.06
579.215	5247.06
579.31	5178.06
579.405	4920.06
579.5	4987.06
579.595	4979.06
579.69	4746.06
579.785	4854.06
579.88	4767.06
579.975	4786.06
580.07	4810.06
580.165	4830.06
580.26	4919.06
580.355	4826.06
580.45	4734.06
580.545	4679.06
580.64	4757.06
580.735	4785.06
580.83	4750.06
580.925	4626.06
581.02	4658.06
581.115	4595.06
581.21	4516.06
581.305	4755.06
581.4	4616.06
581.495	4544.06
581.589	4573.06
581.684	4414.06
581.779	4588.06
581.874	4539.06
581.969	4570.06
582.064	4400.06
582.158	4377.06
582.253	4407.06
582.348	4450.06
582.443	4490.06
582.537	4428.06
582.632	4600.06
582.727	4409.06
582.822	4321.06
582.916	4306.06
583.011	4276.06
583.106	4339.06
583.201	4322.06
583.295	4292.06
583.39	4235.06
583.485	4272.06
583.579	6337.06
583.674	4440.06
583.769	4485.06
583.863	4186.06
583.958	4182.06
584.052	4146.06
584.147	4112.06
584.242	4135.06
584.336	4239.06
584.431	4352.06
584.525	4107.06
584.62	4385.06
584.714	4233.06
584.809	4164.06
584.903	4177.06
584.998	4279.06
585.092	4019.06
585.187	4129.06
585.281	4086.06
585.376	4104.06
585.47	4084.06
585.565	4075.06
585.659	4022.06
585.754	4041.06
585.848	4099.06
585.942	4068.06
586.037	3924.06
586.131	5443.06
586.226	4116.06
586.32	4132.06
586.414	3913.06
586.509	4151.06
586.603	3982.06
586.697	3933.06
586.792	3921.06
586.886	3939.06
586.98	4082.06
587.075	3884.06
587.169	3883.06
587.263	4114.06
587.357	3858.06
587.452	3997.06
587.546	4018.06
587.64	3869.06
587.734	4011.06
587.829	3965.06
587.923	3884.06
588.017	3972.06
588.111	3978.06
588.205	4052.06
588.3	4007.06
588.394	4072.06
588.488	4078.06
588.582	4330.06
588.676	4785.06
588.77	6750.06
588.864	13003.06
588.958	12802.06
589.052	9474.06
589.147	6545.06
589.241	5266.06
589.335	5430.06
589.429	8941.06
589.523	10358.06
589.617	8570.06
589.711	6132.06
589.805	4779.06
589.899	4485.06
589.993	4032.06
590.087	4053.06
590.181	3970.06
590.275	3960.06
590.369	3907.06
590.462	3872.06
590.556	3890.06
590.65	3803.06
590.744	3875.06
590.838	3913.06
590.932	3827.06
591.026	3949.06
591.12	4122.06
591.214	3912.06
591.307	3992.06
591.401	3954.06
591.495	4030.06
591.589	3895.06
591.683	4024.06
591.777	4116.06
591.87	4404.06
591.964	4210.06
592.058	4214.06
592.152	4266.06
592.245	4260.06
592.339	4429.06
592.433	4539.06
592.527	4504.06
592.62	4581.06
592.714	4574.06
592.808	4791.06
592.901	4803.06
592.995	4596.06
593.089	4940.06
593.182	4844.06
593.276	4748.06
593.37	4801.06
593.463	4659.06
593.557	4860.06
593.65	4818.06
593.744	4853.06
593.837	5045.06
593.931	4848.06
594.025	8467.06
594.118	5164.06
594.212	4759.06
594.305	4674.06
594.399	4661.06
594.492	4904.06
594.586	4426.06
594.679	4347.06
594.773	4284.06
594.866	4278.06
594.96	4168.06
595.053	4028.06
595.146	3974.06
595.24	3995.06
595.333	3870.06
595.427	3742.06
595.52	3724.06
595.614	3829.06
595.707	3739.06
595.8	3576.06
595.894	3576.06
595.987	3476.06
596.08	3425.06
596.174	3711.06
596.267	3544.06
596.36	3456.06
596.454	3452.06
596.547	3449.06
596.64	3241.06
596.733	3204.06
596.827	3322.06
596.92	3295.06
597.013	3108.06
597.106	3143.06
597.2	3166.06
597.293	3094.06
597.386	3365.06
597.479	3146.06
597.572	3135.06
597.666	3008.06
597.759	3112.06
597.852	3200.06
597.945	3011.06
598.038	3056.06
598.131	3056.06
598.224	2908.06
598.317	3081.06
598.411	3035.06
598.504	2900.06
598.597	3044.06
598.69	2949.06
598.783	2942.06
598.876	2925.06
598.969	3009.06
599.062	2874.06
599.155	3032.06
599.248	2926.06
599.341	3017.06
599.434	2901.06
599.527	2970.06
599.62	2952.06
599.713	2849.06
599.806	2883.06
599.899	3117.06
599.991	2814.06
600.084	3116.06
600.177	2887.06
600.27	2889.06
600.363	3012.06
600.456	2835.06
600.549	2820.06
600.642	2779.06
600.734	2781.06
600.827	2827.06
600.92	2919.06
601.013	2832.06
601.106	2981.06
601.199	2763.06
601.291	2784.06
601.384	2836.06
601.477	3026.06
601.57	2788.06
601.662	2713.06
601.755	2837.06
601.848	2804.06
601.94	2729.06
602.033	2969.06
602.126	2730.06
602.219	2744.06
602.311	2917.06
602.404	2702.06
602.497	2738.06
602.589	2750.06
602.682	2767.06
602.774	2692.06
602.867	2762.06
602.96	2693.06
603.052	2753.06
603.145	2759.06
603.237	2764.06
603.33	2681.06
603.422	2795.06
603.515	2627.06
603.608	2656.06
603.7	2652.06
603.793	2652.06
603.885	2686.06
603.978	2648.06
604.07	2643.06
604.163	2572.06
604.255	2668.06
604.347	2563.06
604.44	2590.06
604.532	2640.06
604.625	2657.06
604.717	2622.06
604.81	2748.06
604.902	2628.06
604.994	2638.06
605.087	2587.06
605.179	2546.06
605.271	2660.06
605.364	2607.06
605.456	2600.06
605.548	2582.06
605.641	2647.06
605.733	2567.06
605.825	2548.06
605.918	2569.06
606.01	2772.06
606.102	3005.06
606.194	2696.06
606.287	2760.06
606.379	2612.06
606.471	2575.06
606.563	2653.06
606.655	2640.06
606.748	2620.06
606.84	2522.06
606.932	2585.06
607.024	2546.06
607.116	2518.06
607.208	2522.06
607.301	2512.06
607.393	2578.06
607.485	2523.06
607.577	2588.06
607.669	2650.06
607.761	2595.06
607.853	2802.06
607.945	2474.06
608.037	2520.06
608.129	2510.06
608.221	2493.06
608.313	2523.06
608.405	2590.06
608.497	2535.06
608.589	2544.06
608.681	2505.06
608.773	2575.06
608.865	2518.06
608.957	2569.06
609.049	2456.06
609.141	2633.06
609.233	2546.06
609.325	2420.06
609.417	2432.06
609.509	2615.06
609.601	2674.06
609.693	2600.06
609.784	2513.06
609.876	2538.06
609.968	2523.06
610.06	4798.06
610.152	2695.06
610.244	2775.06
610.335	2428.06
610.427	2520.06
610.519	2418.06
610.611	2449.06
610.702	2466.06
610.794	2515.06
610.886	2493.06
610.978	2432.06
611.069	2814.06
611.161	2386.06
611.253	2387.06
611.344	2328.06
611.436	2172.06
611.528	2266.06
611.62	2240.06
611.711	2182.06
611.803	2174.06
611.894	2151.06
611.986	2066.06
612.078	2100.06
612.169	2146.06
612.261	2079.06
612.352	1930.06
612.444	1981.06
612.536	2053.06
612.627	1921.06
612.719	1815.06
612.81	1888.06
612.902	1761.06
612.993	1852.06
613.085	1784.06
613.176	1715.06
613.268	1748.06
613.359	1714.06
613.451	1700.06
613.542	1700.06
613.634	1652.06
613.725	1695.06
613.816	1720.06
613.908	1523.06
613.999	1561.06
614.091	1441.06
614.182	1302.06
614.273	1498.06
614.365	1346.06
614.456	1266.06
614.547	1363.06
614.639	1246.06
614.73	1243.06
614.821	1304.06
614.913	1181.06
615.004	1072.06
615.095	1040.06
615.187	1087.06
