Data from 21g_HRC06701__110__354.txt Node

Date: Thu Apr 18 02:09:29 CDT 2024
User: Estudiantes 2
Spectrometer: HR+C0670
Trigger mode: 4
Integration Time (sec): 1.000000E0
Scans to average: 1
Electric dark correction enabled: true
Nonlinearity correction enabled: false
Boxcar width: 0
XAxis mode: Wavelengths
Number of Pixels in Spectrum: 2048
>>>>>Begin Spectral Data<<<<<
407.81	-154.12
407.921	-154.12
408.032	-154.12
408.143	-139.12
408.254	-117.12
408.365	31.88
408.476	293.88
408.587	-32.12
408.699	-5.12
408.81	-36.12
408.921	-55.12
409.032	0.88
409.143	19.88
409.254	37.88
409.365	114.88
409.476	-60.12
409.587	-6.12
409.698	105.88
409.809	69.88
409.92	-33.12
410.031	-2.12
410.142	77.88
410.253	30.88
410.364	27.88
410.475	1332.88
410.585	6310.88
410.696	6702.88
410.807	6626.88
410.918	6626.88
411.029	6699.88
411.14	6806.88
411.251	6833.88
411.362	6791.88
411.472	6885.88
411.583	6829.88
411.694	7062.88
411.805	7035.88
411.916	7142.88
412.026	7031.88
412.137	7055.88
412.248	6963.88
412.359	6947.88
412.47	6738.88
412.58	6666.88
412.691	6910.88
412.802	6811.88
412.912	6731.88
413.023	6840.88
413.134	6712.88
413.245	6738.88
413.355	6719.88
413.466	6738.88
413.577	6670.88
413.687	6824.88
413.798	6550.88
413.909	6728.88
414.019	6807.88
414.13	6878.88
414.24	6847.88
414.351	7050.88
414.462	7195.88
414.572	7064.88
414.683	6943.88
414.793	6940.88
414.904	7175.88
415.014	6869.88
415.125	6836.88
415.235	6890.88
415.346	7020.88
415.456	7048.88
415.567	6782.88
415.677	6792.88
415.788	6932.88
415.898	6764.88
416.009	6751.88
416.119	6799.88
416.23	6859.88
416.34	6800.88
416.45	6860.88
416.561	7684.88
416.671	6869.88
416.782	6888.88
416.892	7138.88
417.002	7026.88
417.113	7222.88
417.223	6990.88
417.333	7101.88
417.444	7099.88
417.554	7326.88
417.664	7376.88
417.775	7178.88
417.885	7379.88
417.995	7546.88
418.106	7759.88
418.216	7510.88
418.326	7794.88
418.436	7751.88
418.547	7987.88
418.657	7886.88
418.767	8157.88
418.877	8048.88
418.987	8211.88
419.098	8130.88
419.208	8148.88
419.318	8130.88
419.428	8151.88
419.538	7959.88
419.648	8120.88
419.759	8013.88
419.869	8025.88
419.979	8030.88
420.089	8126.88
420.199	8103.88
420.309	8146.88
420.419	8119.88
420.529	8257.88
420.639	8532.88
420.749	8239.88
420.859	8446.88
420.969	8293.88
421.079	8471.88
421.189	8273.88
421.299	8160.88
421.409	8274.88
421.519	8307.88
421.629	8624.88
421.739	8459.88
421.849	8520.88
421.959	8654.88
422.069	8593.88
422.179	8778.88
422.289	8802.88
422.399	9116.88
422.509	9149.88
422.619	11479.88
422.729	9433.88
422.838	9241.88
422.948	9392.88
423.058	9485.88
423.168	9618.88
423.278	9784.88
423.388	9824.88
423.498	10018.88
423.607	9994.88
423.717	10336.88
423.827	10398.88
423.937	10078.88
424.046	10263.88
424.156	10387.88
424.266	10161.88
424.376	10445.88
424.485	10271.88
424.595	10260.88
424.705	10368.88
424.815	10423.88
424.924	10766.88
425.034	10401.88
425.144	10317.88
425.253	10262.88
425.363	10574.88
425.473	10586.88
425.582	10307.88
425.692	10550.88
425.801	10448.88
425.911	10564.88
426.021	10604.88
426.13	10634.88
426.24	10801.88
426.349	10722.88
426.459	10744.88
426.568	10782.88
426.678	10753.88
426.787	10854.88
426.897	10910.88
427.006	10930.88
427.116	10956.88
427.225	10953.88
427.335	11195.88
427.444	10927.88
427.554	11106.88
427.663	11359.88
427.773	11234.88
427.882	11322.88
427.992	11264.88
428.101	11387.88
428.21	11214.88
428.32	11594.88
428.429	11470.88
428.539	11838.88
428.648	11601.88
428.757	11595.88
428.867	11694.88
428.976	12149.88
429.085	11946.88
429.195	11753.88
429.304	11788.88
429.413	12028.88
429.523	12084.88
429.632	12152.88
429.741	12048.88
429.85	12080.88
429.96	12367.88
430.069	12215.88
430.178	12330.88
430.287	12576.88
430.397	12402.88
430.506	12456.88
430.615	12575.88
430.724	12593.88
430.833	12669.88
430.943	12619.88
431.052	12865.88
431.161	12909.88
431.27	13196.88
431.379	13185.88
431.488	13964.88
431.597	13594.88
431.706	13864.88
431.816	13721.88
431.925	13783.88
432.034	13549.88
432.143	13745.88
432.252	13662.88
432.361	13655.88
432.47	13679.88
432.579	13752.88
432.688	13484.88
432.797	13653.88
432.906	13454.88
433.015	13752.88
433.124	14015.88
433.233	13841.88
433.342	13821.88
433.451	13871.88
433.56	13742.88
433.669	13940.88
433.778	13885.88
433.886	14209.88
433.995	14220.88
434.104	14452.88
434.213	14452.88
434.322	14563.88
434.431	14563.88
434.54	14563.88
434.649	14563.88
434.757	14563.88
434.866	14563.88
434.975	14563.88
435.084	14563.88
435.193	14563.88
435.301	14563.88
435.41	14358.88
435.519	14377.88
435.628	13582.88
435.737	13539.88
435.845	13242.88
435.954	13033.88
436.063	13077.88
436.171	13349.88
436.28	13059.88
436.389	13410.88
436.498	13135.88
436.606	13094.88
436.715	13317.88
436.823	12834.88
436.932	12692.88
437.041	12665.88
437.149	12558.88
437.258	12345.88
437.367	11961.88
437.475	12265.88
437.584	12554.88
437.692	12153.88
437.801	13568.88
437.91	12087.88
438.018	11998.88
438.127	11886.88
438.235	11975.88
438.344	12101.88
438.452	11949.88
438.561	11911.88
438.669	11854.88
438.778	11869.88
438.886	11930.88
438.995	11767.88
439.103	11870.88
439.212	12057.88
439.32	12145.88
439.428	11916.88
439.537	12042.88
439.645	12326.88
439.754	12344.88
439.862	12039.88
439.97	12261.88
440.079	12435.88
440.187	12272.88
440.295	12601.88
440.404	12380.88
440.512	12422.88
440.62	12520.88
440.729	12838.88
440.837	12934.88
440.945	14046.88
441.054	13435.88
441.162	13576.88
441.27	13881.88
441.378	14316.88
441.487	14289.88
441.595	14563.88
441.703	14216.88
441.811	13842.88
441.92	13645.88
442.028	13481.88
442.136	13684.88
442.244	13418.88
442.352	13425.88
442.461	13248.88
442.569	13352.88
442.677	13456.88
442.785	13420.88
442.893	13345.88
443.001	13328.88
443.109	13337.88
443.217	13450.88
443.325	13292.88
443.434	14296.88
443.542	14212.88
443.65	13774.88
443.758	13978.88
443.866	14292.88
443.974	14563.88
444.082	14563.88
444.19	14563.88
444.298	14563.88
444.406	14563.88
444.514	14563.88
444.622	14563.88
444.73	14563.88
444.838	14563.88
444.946	14563.88
445.054	14563.88
445.161	14563.88
445.269	14287.88
445.377	14290.88
445.485	14002.88
445.593	13761.88
445.701	13714.88
445.809	13360.88
445.917	13392.88
446.025	13311.88
446.132	13410.88
446.24	13485.88
446.348	13475.88
446.456	13034.88
446.564	13190.88
446.671	13330.88
446.779	13122.88
446.887	13130.88
446.995	12861.88
447.102	13022.88
447.21	12785.88
447.318	12756.88
447.426	12802.88
447.533	13058.88
447.641	14110.88
447.749	12874.88
447.856	12748.88
447.964	12715.88
448.072	12862.88
448.179	12832.88
448.287	12736.88
448.395	12795.88
448.502	12655.88
448.61	12916.88
448.718	12712.88
448.825	12938.88
448.933	12809.88
449.04	12842.88
449.148	13042.88
449.256	12984.88
449.363	12923.88
449.471	13266.88
449.578	13322.88
449.686	13128.88
449.793	13408.88
449.901	13374.88
450.008	13590.88
450.116	13897.88
450.223	13949.88
450.331	14203.88
450.438	14323.88
450.546	14238.88
450.653	14481.88
450.76	14563.88
450.868	14563.88
450.975	14563.88
451.083	14563.88
451.19	14563.88
451.297	14563.88
451.405	14563.88
451.512	14563.88
451.619	14563.88
451.727	14563.88
451.834	14563.88
451.941	14563.88
452.049	14563.88
452.156	14563.88
452.263	14563.88
452.371	14563.88
452.478	14563.88
452.585	14563.88
452.692	14563.88
452.8	14563.88
452.907	14563.88
453.014	14563.88
453.121	14563.88
453.229	14563.88
453.336	14563.88
453.443	14563.88
453.55	14563.88
453.657	14563.88
453.765	14563.88
453.872	14563.88
453.979	14563.88
454.086	14563.88
454.193	14563.88
454.3	14563.88
454.407	14563.88
454.514	14563.88
454.621	14563.88
454.729	14563.88
454.836	14563.88
454.943	14563.88
455.05	14563.88
455.157	14563.88
455.264	14563.88
455.371	14563.88
455.478	14563.88
455.585	14563.88
455.692	14563.88
455.799	14563.88
455.906	14563.88
456.013	14563.88
456.12	14563.88
456.227	14563.88
456.334	14563.88
456.44	14563.88
456.547	14563.88
456.654	14563.88
456.761	14563.88
456.868	14563.88
456.975	14563.88
457.082	14563.88
457.189	14563.88
457.296	14563.88
457.402	14563.88
457.509	14563.88
457.616	14563.88
457.723	14563.88
457.83	14563.88
457.936	14563.88
458.043	14563.88
458.15	14563.88
458.257	14563.88
458.363	14563.88
458.47	14563.88
458.577	14563.88
458.684	14563.88
458.79	14563.88
458.897	14563.88
459.004	14563.88
459.11	14563.88
459.217	14563.88
459.324	14563.88
459.43	14563.88
459.537	14563.88
459.644	14563.88
459.75	14563.88
459.857	14563.88
459.964	14563.88
460.07	14563.88
460.177	14563.88
460.283	14563.88
460.39	14563.88
460.496	14563.88
460.603	14563.88
460.71	14563.88
460.816	14563.88
460.923	14563.88
461.029	14563.88
461.136	14563.88
461.242	14563.88
461.349	14563.88
461.455	14563.88
461.562	14563.88
461.668	14563.88
461.774	14563.88
461.881	14563.88
461.987	14563.88
462.094	14563.88
462.2	14563.88
462.307	14563.88
462.413	14563.88
462.519	14563.88
462.626	14563.88
462.732	14563.88
462.838	14563.88
462.945	14563.88
463.051	14563.88
463.157	14563.88
463.264	14563.88
463.37	14563.88
463.476	14563.88
463.583	14563.88
463.689	14563.88
463.795	14563.88
463.901	14563.88
464.008	14563.88
464.114	14563.88
464.22	14563.88
464.326	14563.88
464.433	14563.88
464.539	14563.88
464.645	14563.88
464.751	14563.88
464.857	14563.88
464.963	14563.88
465.07	14563.88
465.176	14563.88
465.282	14563.88
465.388	14563.88
465.494	14563.88
465.6	14563.88
465.706	14563.88
465.812	14563.88
465.918	14563.88
466.024	14563.88
466.131	14563.88
466.237	14563.88
466.343	14563.88
466.449	14563.88
466.555	14563.88
466.661	14563.88
466.767	14563.88
466.873	14563.88
466.979	14563.88
467.085	14563.88
467.191	14563.88
467.296	14563.88
467.402	14563.88
467.508	14563.88
467.614	14563.88
467.72	14563.88
467.826	14563.88
467.932	14563.88
468.038	14563.88
468.144	14563.88
468.25	14563.88
468.355	14563.88
468.461	14563.88
468.567	14563.88
468.673	14563.88
468.779	14563.88
468.885	14563.88
468.99	14563.88
469.096	14563.88
469.202	14563.88
469.308	14563.88
469.413	14563.88
469.519	14563.88
469.625	14563.88
469.731	14563.88
469.836	14563.88
469.942	14563.88
470.048	14563.88
470.153	14563.88
470.259	14563.88
470.365	14563.88
470.47	14563.88
470.576	14563.88
470.682	14563.88
470.787	14563.88
470.893	14563.88
470.999	14563.88
471.104	14563.88
471.21	14563.88
471.315	14563.88
471.421	14563.88
471.527	14563.88
471.632	14563.88
471.738	14563.88
471.843	14563.88
471.949	14458.88
472.054	14390.88
472.16	14196.88
472.265	14151.88
472.371	13871.88
472.476	13862.88
472.582	13994.88
472.687	13779.88
472.793	13628.88
472.898	13417.88
473.003	13672.88
473.109	13303.88
473.214	13281.88
473.32	13393.88
473.425	13310.88
473.53	13168.88
473.636	13037.88
473.741	13246.88
473.847	13178.88
473.952	13152.88
474.057	13111.88
474.163	13138.88
474.268	13095.88
474.373	13182.88
474.478	13054.88
474.584	12983.88
474.689	13140.88
474.794	13186.88
474.9	13432.88
475.005	13082.88
475.11	13464.88
475.215	13129.88
475.321	13135.88
475.426	13388.88
475.531	13320.88
475.636	13141.88
475.741	13181.88
475.846	13478.88
475.952	13588.88
476.057	13466.88
476.162	13598.88
476.267	13720.88
476.372	13858.88
476.477	13622.88
476.582	13775.88
476.687	13729.88
476.793	13815.88
476.898	13963.88
477.003	14002.88
477.108	14371.88
477.213	14159.88
477.318	14365.88
477.423	14563.88
477.528	14563.88
477.633	14563.88
477.738	14563.88
477.843	14563.88
477.948	14563.88
478.053	14563.88
478.158	14563.88
478.263	14563.88
478.368	14563.88
478.473	14563.88
478.578	14563.88
478.682	14563.88
478.787	14563.88
478.892	14563.88
478.997	14563.88
479.102	14563.88
479.207	14563.88
479.312	14563.88
479.417	14563.88
479.521	14563.88
479.626	14563.88
479.731	14563.88
479.836	14563.88
479.941	14563.88
480.045	14563.88
480.15	14563.88
480.255	14563.88
480.36	14563.88
480.465	14563.88
480.569	14563.88
480.674	14563.88
480.779	14563.88
480.883	14563.88
480.988	14563.88
481.093	14563.88
481.197	14563.88
481.302	14563.88
481.407	14563.88
481.511	14563.88
481.616	14563.88
481.721	14563.88
481.825	14563.88
481.93	14563.88
482.035	14563.88
482.139	14563.88
482.244	14563.88
482.348	14563.88
482.453	14563.88
482.557	14563.88
482.662	14563.88
482.767	14563.88
482.871	14563.88
482.976	14563.88
483.08	14563.88
483.185	14563.88
483.289	14563.88
483.394	14563.88
483.498	14563.88
483.603	14563.88
483.707	14563.88
483.811	14563.88
483.916	14563.88
484.02	14563.88
484.125	14563.88
484.229	14563.88
484.333	14563.88
484.438	14563.88
484.542	14563.88
484.647	14563.88
484.751	14563.88
484.855	14563.88
484.96	14563.88
485.064	14563.88
485.168	14563.88
485.273	14563.88
485.377	14563.88
485.481	14563.88
485.585	14563.88
485.69	14563.88
485.794	14563.88
485.898	14563.88
486.002	14563.88
486.107	14563.88
486.211	14563.88
486.315	14563.88
486.419	14563.88
486.524	14563.88
486.628	14563.88
486.732	14563.88
486.836	14563.88
486.94	14563.88
487.044	14563.88
487.148	14563.88
487.253	14563.88
487.357	14563.88
487.461	14563.88
487.565	14563.88
487.669	14563.88
487.773	14563.88
487.877	14563.88
487.981	14563.88
488.085	14563.88
488.189	14563.88
488.293	14563.88
488.397	14563.88
488.501	14563.88
488.605	14563.88
488.709	14563.88
488.813	14563.88
488.917	14563.88
489.021	14563.88
489.125	14563.88
489.229	14563.88
489.333	14563.88
489.437	14563.88
489.541	14563.88
489.645	14563.88
489.749	14563.88
489.853	14563.88
489.956	14563.88
490.06	14563.88
490.164	14563.88
490.268	14563.88
490.372	14563.88
490.476	14563.88
490.579	14563.88
490.683	14563.88
490.787	14563.88
490.891	14563.88
490.995	14563.88
491.098	14563.88
491.202	14563.88
491.306	14563.88
491.41	14563.88
491.513	14563.88
491.617	14563.88
491.721	14563.88
491.824	14563.88
491.928	14563.88
492.032	14563.88
492.136	14563.88
492.239	14563.88
492.343	14563.88
492.446	14563.88
492.55	14563.88
492.654	14563.88
492.757	14563.88
492.861	14563.88
492.965	14563.88
493.068	14563.88
493.172	14563.88
493.275	14563.88
493.379	14563.88
493.482	14563.88
493.586	14563.88
493.689	14563.88
493.793	14563.88
493.896	14563.88
494	14563.88
494.103	14563.88
494.207	14563.88
494.31	14563.88
494.414	14563.88
494.517	14563.88
494.621	14563.88
494.724	14563.88
494.828	14563.88
494.931	14563.88
495.034	14563.88
495.138	14563.88
495.241	14563.88
495.345	14563.88
495.448	14563.88
495.551	14563.88
495.655	14563.88
495.758	14563.88
495.861	14563.88
495.965	14563.88
496.068	14563.88
496.171	14563.88
496.274	14563.88
496.378	14563.88
496.481	14563.88
496.584	14563.88
496.687	14563.88
496.791	14563.88
496.894	14563.88
496.997	14563.88
497.1	14563.88
497.204	14563.88
497.307	14563.88
497.41	14563.88
497.513	14563.88
497.616	14563.88
497.719	14563.88
497.823	14563.88
497.926	14563.88
498.029	14563.88
498.132	14563.88
498.235	14563.88
498.338	14563.88
498.441	14563.88
498.544	14563.88
498.647	14563.88
498.75	14563.88
498.853	14563.88
498.956	14563.88
499.059	14563.88
499.163	14563.88
499.266	14563.88
499.369	14563.88
499.471	14563.88
499.574	14563.88
499.677	14563.88
499.78	14563.88
499.883	14563.88
499.986	14563.88
500.089	14563.88
500.192	14563.88
500.295	14563.88
500.398	14563.88
500.501	14563.88
500.604	14563.88
500.707	14563.88
500.809	14563.88
500.912	14563.88
501.015	14563.88
501.118	14563.88
501.221	14563.88
501.324	14563.88
501.426	14563.88
501.529	14563.88
501.632	14563.88
501.735	14563.88
501.837	14563.88
501.94	14563.88
502.043	14563.88
502.146	14563.88
502.248	14563.88
502.351	14563.88
502.454	14563.88
502.557	14563.88
502.659	14563.88
502.762	14563.88
502.865	14563.88
502.967	14563.88
503.07	14563.88
503.173	14563.88
503.275	14563.88
503.378	14563.88
503.48	14563.88
503.583	14563.88
503.686	14563.88
503.788	14563.88
503.891	14563.88
503.993	14563.88
504.096	14563.88
504.198	14563.88
504.301	14563.88
504.403	14563.88
504.506	14563.88
504.608	14563.88
504.711	14563.88
504.813	14563.88
504.916	14563.88
505.018	14563.88
505.121	14563.88
505.223	14563.88
505.326	14563.88
505.428	14563.88
505.531	14563.88
505.633	14563.88
505.735	14563.88
505.838	14563.88
505.94	14563.88
506.042	14563.88
506.145	14563.88
506.247	14563.88
506.35	14563.88
506.452	14563.88
506.554	14563.88
506.656	14563.88
506.759	14563.88
506.861	14563.88
506.963	14563.88
507.066	14563.88
507.168	14563.88
507.27	14563.88
507.372	14562.88
507.475	14516.88
507.577	14563.88
507.679	14340.88
507.781	14066.88
507.883	14218.88
507.986	13857.88
508.088	14050.88
508.19	13977.88
508.292	13970.88
508.394	13768.88
508.496	13756.88
508.598	13767.88
508.701	13786.88
508.803	13779.88
508.905	13579.88
509.007	13606.88
509.109	13658.88
509.211	13517.88
509.313	13607.88
509.415	13488.88
509.517	13516.88
509.619	13331.88
509.721	13451.88
509.823	13388.88
509.925	13538.88
510.027	13303.88
510.129	13357.88
510.231	13443.88
510.333	13246.88
510.435	13385.88
510.537	13419.88
510.639	13354.88
510.741	13562.88
510.843	13304.88
510.945	13197.88
511.047	13316.88
511.148	13262.88
511.25	13150.88
511.352	13273.88
511.454	13214.88
511.556	13317.88
511.658	13373.88
511.76	13464.88
511.861	13716.88
511.963	13357.88
512.065	13176.88
512.167	13210.88
512.268	13579.88
512.37	13498.88
512.472	13495.88
512.574	13422.88
512.676	13581.88
512.777	13403.88
512.879	13358.88
512.981	13481.88
513.082	13451.88
513.184	13599.88
513.286	14087.88
513.387	13666.88
513.489	13791.88
513.591	13645.88
513.692	13974.88
513.794	13933.88
513.896	13733.88
513.997	13733.88
514.099	13784.88
514.2	14015.88
514.302	14059.88
514.404	14136.88
514.505	14174.88
514.607	14134.88
514.708	14399.88
514.81	14473.88
514.911	14532.88
515.013	14563.88
515.114	14563.88
515.216	14563.88
515.317	14563.88
515.419	14563.88
515.52	14563.88
515.622	14563.88
515.723	14563.88
515.825	14563.88
515.926	14563.88
516.027	14563.88
516.129	14563.88
516.23	14563.88
516.332	14563.88
516.433	14563.88
516.534	14563.88
516.636	14563.88
516.737	14563.88
516.838	14563.88
516.94	14563.88
517.041	14563.88
517.142	14563.88
517.244	14563.88
517.345	14563.88
517.446	14563.88
517.547	14563.88
517.649	14563.88
517.75	14563.88
517.851	14563.88
517.952	14563.88
518.054	14563.88
518.155	14563.88
518.256	14563.88
518.357	14563.88
518.458	14563.88
518.56	14563.88
518.661	14563.88
518.762	14563.88
518.863	14563.88
518.964	14563.88
519.065	14563.88
519.166	14563.88
519.268	14563.88
519.369	14563.88
519.47	14563.88
519.571	14563.88
519.672	14563.88
519.773	14563.88
519.874	14563.88
519.975	14563.88
520.076	14563.88
520.177	14563.88
520.278	14563.88
520.379	14563.88
520.48	14563.88
520.581	14563.88
520.682	14563.88
520.783	14563.88
520.884	14563.88
520.985	14563.88
521.086	14563.88
521.187	14563.88
521.288	14563.88
521.389	14563.88
521.489	14563.88
521.59	14563.88
521.691	14563.88
521.792	14563.88
521.893	14563.88
521.994	14563.88
522.095	14563.88
522.195	14563.88
522.296	14563.88
522.397	14563.88
522.498	14563.88
522.599	14563.88
522.699	14563.88
522.8	14563.88
522.901	14563.88
523.002	14563.88
523.102	14563.88
523.203	14563.88
523.304	14563.88
523.405	14563.88
523.505	14563.88
523.606	14563.88
523.707	14563.88
523.807	14563.88
523.908	14563.88
524.009	14563.88
524.109	14563.88
524.21	14563.88
524.31	14563.88
524.411	14563.88
524.512	14563.88
524.612	14563.88
524.713	14563.88
524.813	14563.88
524.914	14563.88
525.014	14563.88
525.115	14563.88
525.216	14563.88
525.316	14563.88
525.417	14563.88
525.517	14563.88
525.618	14563.88
525.718	14563.88
525.819	14563.88
525.919	14563.88
526.019	14563.88
526.12	14563.88
526.22	14563.88
526.321	14563.88
526.421	14563.88
526.522	14563.88
526.622	14563.88
526.722	14563.88
526.823	14563.88
526.923	14563.88
527.023	14563.88
527.124	14563.88
527.224	14563.88
527.324	14563.88
527.425	14563.88
527.525	14563.88
527.625	14563.88
527.726	14563.88
527.826	14563.88
527.926	14563.88
528.026	14563.88
528.127	14563.88
528.227	14563.88
528.327	14563.88
528.427	14563.88
528.528	14563.88
528.628	14563.88
528.728	14563.88
528.828	14563.88
528.928	14563.88
529.029	14563.88
529.129	14563.88
529.229	14563.88
529.329	14563.88
529.429	14563.88
529.529	14563.88
529.629	14563.88
529.729	14563.88
529.829	14563.88
529.93	14563.88
530.03	14563.88
530.13	14563.88
530.23	14563.88
530.33	14563.88
530.43	14563.88
530.53	14563.88
530.63	14563.88
530.73	14563.88
530.83	14563.88
530.93	14563.88
531.03	14563.88
531.13	14563.88
531.23	14563.88
531.33	14563.88
531.429	14563.88
531.529	14563.88
531.629	14563.88
531.729	14563.88
531.829	14563.88
531.929	14563.88
532.029	14563.88
532.129	14563.88
532.229	14563.88
532.328	14563.88
532.428	14563.88
532.528	14563.88
532.628	14563.88
532.728	14563.88
532.827	14421.88
532.927	14563.88
533.027	14458.88
533.127	14513.88
533.227	14563.88
533.326	14451.88
533.426	14216.88
533.526	14422.88
533.625	14521.88
533.725	14561.88
533.825	14242.88
533.924	14346.88
534.024	13958.88
534.124	14045.88
534.223	14022.88
534.323	14438.88
534.423	13901.88
534.522	13926.88
534.622	13734.88
534.722	13670.88
534.821	13641.88
534.921	13686.88
535.02	13530.88
535.12	13641.88
535.219	13560.88
535.319	13515.88
535.419	13448.88
535.518	13320.88
535.618	13463.88
535.717	13192.88
535.817	13086.88
535.916	12926.88
536.016	13159.88
536.115	12834.88
536.215	12766.88
536.314	12725.88
536.413	12681.88
536.513	12715.88
536.612	12598.88
536.712	12522.88
536.811	12384.88
536.91	12402.88
537.01	12322.88
537.109	12361.88
537.209	12445.88
537.308	12328.88
537.407	12218.88
537.507	12192.88
537.606	12127.88
537.705	12194.88
537.805	12083.88
537.904	12038.88
538.003	12033.88
538.102	12172.88
538.202	12010.88
538.301	12004.88
538.4	11905.88
538.499	11784.88
538.599	11878.88
538.698	12017.88
538.797	11805.88
538.896	11994.88
538.995	11740.88
539.095	11637.88
539.194	12053.88
539.293	11550.88
539.392	11569.88
539.491	11509.88
539.59	11477.88
539.689	11739.88
539.789	11398.88
539.888	11286.88
539.987	11179.88
540.086	11343.88
540.185	11340.88
540.284	11396.88
540.383	11249.88
540.482	11251.88
540.581	11170.88
540.68	11169.88
540.779	11357.88
540.878	11067.88
540.977	11170.88
541.076	11012.88
541.175	11149.88
541.274	11160.88
541.373	11130.88
541.472	10982.88
541.571	10844.88
541.67	12379.88
541.769	10991.88
541.868	10786.88
541.966	10913.88
542.065	10939.88
542.164	10774.88
542.263	10591.88
542.362	10771.88
542.461	10946.88
542.56	10734.88
542.658	10878.88
542.757	10757.88
542.856	10578.88
542.955	10721.88
543.054	10481.88
543.152	10966.88
543.251	10597.88
543.35	10811.88
543.449	10648.88
543.547	10624.88
543.646	10472.88
543.745	10602.88
543.843	10755.88
543.942	10712.88
544.041	10698.88
544.14	10586.88
544.238	10576.88
544.337	10986.88
544.436	10843.88
544.534	10938.88
544.633	10952.88
544.731	10848.88
544.83	10796.88
544.929	10935.88
545.027	10834.88
545.126	10963.88
545.224	10909.88
545.323	10886.88
545.421	10790.88
545.52	11001.88
545.619	11002.88
545.717	10745.88
545.816	10967.88
545.914	10880.88
546.013	11007.88
546.111	10957.88
546.209	10778.88
546.308	10744.88
546.406	10746.88
546.505	10806.88
546.603	10883.88
546.702	10631.88
546.8	10561.88
546.899	10583.88
546.997	10682.88
547.095	10602.88
547.194	10854.88
547.292	10672.88
547.39	10903.88
547.489	10773.88
547.587	11071.88
547.685	10823.88
547.784	11140.88
547.882	10899.88
547.98	10784.88
548.079	10849.88
548.177	10872.88
548.275	10880.88
548.373	11050.88
548.472	10685.88
548.57	10847.88
548.668	11002.88
548.766	10913.88
548.864	10845.88
548.963	10985.88
549.061	11117.88
549.159	11014.88
549.257	11151.88
549.355	11083.88
549.454	11083.88
549.552	11038.88
549.65	11030.88
549.748	11010.88
549.846	11013.88
549.944	10935.88
550.042	10859.88
550.14	10837.88
550.238	10672.88
550.336	10502.88
550.434	10557.88
550.532	10466.88
550.631	10558.88
550.729	10492.88
550.827	10682.88
550.925	10541.88
551.023	10582.88
551.121	10607.88
551.218	10659.88
551.316	10529.88
551.414	10658.88
551.512	10578.88
551.61	10757.88
551.708	10910.88
551.806	10880.88
551.904	10769.88
552.002	10941.88
552.1	11070.88
552.198	11082.88
552.296	11499.88
552.393	11581.88
552.491	11733.88
552.589	11928.88
552.687	12017.88
552.785	12149.88
552.882	12350.88
552.98	12466.88
553.078	12396.88
553.176	12469.88
553.274	12208.88
553.371	12337.88
553.469	12215.88
553.567	12089.88
553.665	11904.88
553.762	12258.88
553.86	11781.88
553.958	11633.88
554.055	11421.88
554.153	11318.88
554.251	11274.88
554.348	11175.88
554.446	11027.88
554.544	11030.88
554.641	11212.88
554.739	10745.88
554.837	10777.88
554.934	10744.88
555.032	10626.88
555.129	10426.88
555.227	10867.88
555.324	13841.88
555.422	10550.88
555.519	10201.88
555.617	10206.88
555.715	10041.88
555.812	10586.88
555.91	9941.88
556.007	10122.88
556.105	9927.88
556.202	10017.88
556.299	9761.88
556.397	9955.88
556.494	9800.88
556.592	9907.88
556.689	9873.88
556.787	9731.88
556.884	9706.88
556.981	9627.88
557.079	9778.88
557.176	9643.88
557.273	9745.88
557.371	9850.88
557.468	9706.88
557.566	9717.88
557.663	9551.88
557.76	9712.88
557.857	9596.88
557.955	9776.88
558.052	9757.88
558.149	9869.88
558.247	9829.88
558.344	9697.88
558.441	9693.88
558.538	9664.88
558.636	9727.88
558.733	9740.88
558.83	9737.88
558.927	9823.88
559.024	9702.88
559.122	9678.88
559.219	9750.88
559.316	9857.88
559.413	9916.88
559.51	9743.88
559.607	9742.88
559.704	9612.88
559.801	9694.88
559.899	9761.88
559.996	10167.88
560.093	9904.88
560.19	9729.88
560.287	9814.88
560.384	9885.88
560.481	9881.88
560.578	9882.88
560.675	9804.88
560.772	9900.88
560.869	9805.88
560.966	9980.88
561.063	9873.88
561.16	10051.88
561.257	9967.88
561.354	9959.88
561.451	9923.88
561.548	10042.88
561.645	10324.88
561.742	9994.88
561.838	10103.88
561.935	9940.88
562.032	10137.88
562.129	10143.88
562.226	10121.88
562.323	10265.88
562.42	10278.88
562.516	10285.88
562.613	10283.88
562.71	10335.88
562.807	11222.88
562.904	10415.88
563	10453.88
563.097	10539.88
563.194	10388.88
563.291	10582.88
563.387	10579.88
563.484	10625.88
563.581	10646.88
563.678	10740.88
563.774	11245.88
563.871	10959.88
563.968	10948.88
564.064	11182.88
564.161	11186.88
564.258	11102.88
564.354	11464.88
564.451	11497.88
564.548	11563.88
564.644	11596.88
564.741	11741.88
564.837	11960.88
564.934	12083.88
565.031	12211.88
565.127	12455.88
565.224	12642.88
565.32	13011.88
565.417	13085.88
565.513	13281.88
565.61	13507.88
565.706	13943.88
565.803	14274.88
565.899	14563.88
565.996	14563.88
566.092	14563.88
566.189	14563.88
566.285	14563.88
566.382	14563.88
566.478	14563.88
566.574	14563.88
566.671	14563.88
566.767	14563.88
566.864	14563.88
566.96	14563.88
567.056	14563.88
567.153	14563.88
567.249	14563.88
567.345	14563.88
567.442	14563.88
567.538	14563.88
567.634	14563.88
567.731	14563.88
567.827	14563.88
567.923	14563.88
568.019	14563.88
568.116	14563.88
568.212	14563.88
568.308	14563.88
568.404	14563.88
568.501	14563.88
568.597	14563.88
568.693	14563.88
568.789	14563.88
568.885	14563.88
568.982	14216.88
569.078	13831.88
569.174	13609.88
569.27	13100.88
569.366	12985.88
569.462	12654.88
569.558	12377.88
569.655	12488.88
569.751	12161.88
569.847	12015.88
569.943	11983.88
570.039	11784.88
570.135	12290.88
570.231	11706.88
570.327	11689.88
570.423	11737.88
570.519	11672.88
570.615	11727.88
570.711	11953.88
570.807	11873.88
570.903	11913.88
570.999	11860.88
571.095	11576.88
571.191	11510.88
571.287	11233.88
571.383	11131.88
571.479	10924.88
571.574	10738.88
571.67	10561.88
571.766	10639.88
571.862	10189.88
571.958	10119.88
572.054	10008.88
572.15	10013.88
572.246	9705.88
572.341	9981.88
572.437	9790.88
572.533	9736.88
572.629	9665.88
572.725	9494.88
572.82	9375.88
572.916	9505.88
573.012	9432.88
573.108	9501.88
573.203	9350.88
573.299	9230.88
573.395	9321.88
573.49	9039.88
573.586	9115.88
573.682	9196.88
573.778	9155.88
573.873	9028.88
573.969	9064.88
574.065	8939.88
574.16	9027.88
574.256	8937.88
574.351	9128.88
574.447	8844.88
574.543	8891.88
574.638	9133.88
574.734	8955.88
574.829	8982.88
574.925	8792.88
575.02	8683.88
575.116	8572.88
575.212	8566.88
575.307	8615.88
575.403	8391.88
575.498	8576.88
575.594	8551.88
575.689	8317.88
575.784	8294.88
575.88	8310.88
575.975	8239.88
576.071	8184.88
576.166	8204.88
576.262	8194.88
576.357	8079.88
576.452	8242.88
576.548	8184.88
576.643	8076.88
576.739	8050.88
576.834	8008.88
576.929	8023.88
577.025	8117.88
577.12	7787.88
577.215	7742.88
577.311	7863.88
577.406	7887.88
577.501	7865.88
577.597	7554.88
577.692	7895.88
577.787	7758.88
577.882	7489.88
577.978	7481.88
578.073	7515.88
578.168	7376.88
578.263	7437.88
578.358	7478.88
578.454	7170.88
578.549	7271.88
578.644	7214.88
578.739	7406.88
578.834	7185.88
578.929	7205.88
579.025	7066.88
579.12	7234.88
579.215	7384.88
579.31	7230.88
579.405	6958.88
579.5	7095.88
579.595	7015.88
579.69	6842.88
579.785	6839.88
579.88	6894.88
579.975	6842.88
580.07	6749.88
580.165	6795.88
580.26	6818.88
580.355	6737.88
580.45	6732.88
580.545	6696.88
580.64	6683.88
580.735	6749.88
580.83	6731.88
580.925	6475.88
581.02	6454.88
581.115	6580.88
581.21	6492.88
581.305	6527.88
581.4	6494.88
581.495	6497.88
581.589	6416.88
581.684	6346.88
581.779	6601.88
581.874	6417.88
581.969	6477.88
582.064	6332.88
582.158	6299.88
582.253	6204.88
582.348	6330.88
582.443	6156.88
582.537	6242.88
582.632	6396.88
582.727	6324.88
582.822	6165.88
582.916	6155.88
583.011	6109.88
583.106	6139.88
583.201	5999.88
583.295	6074.88
583.39	5982.88
583.485	6039.88
583.579	7632.88
583.674	6022.88
583.769	6193.88
583.863	5992.88
583.958	5865.88
584.052	5852.88
584.147	5889.88
584.242	5817.88
584.336	5906.88
584.431	6017.88
584.525	5752.88
584.62	5918.88
584.714	5869.88
584.809	5887.88
584.903	5755.88
584.998	5838.88
585.092	5673.88
585.187	5809.88
585.281	5559.88
585.376	5666.88
585.47	5927.88
585.565	5714.88
585.659	5582.88
585.754	5736.88
585.848	5577.88
585.942	5626.88
586.037	5596.88
586.131	6924.88
586.226	5656.88
586.32	5700.88
586.414	5416.88
586.509	5613.88
586.603	5578.88
586.697	5529.88
586.792	5433.88
586.886	5483.88
586.98	5630.88
587.075	5427.88
587.169	5448.88
587.263	5612.88
587.357	5453.88
587.452	5327.88
587.546	5588.88
587.64	5456.88
587.734	5371.88
587.829	5383.88
587.923	5317.88
588.017	5386.88
588.111	5502.88
588.205	5689.88
588.3	5447.88
588.394	5485.88
588.488	5707.88
588.582	5885.88
588.676	6288.88
588.77	8877.88
588.864	14563.88
588.958	14563.88
589.052	12351.88
589.147	8596.88
589.241	7110.88
589.335	7200.88
589.429	11251.88
589.523	13219.88
589.617	11191.88
589.711	8090.88
589.805	6425.88
589.899	5989.88
589.993	5636.88
590.087	5489.88
590.181	5397.88
590.275	5453.88
590.369	5446.88
590.462	5208.88
590.556	5262.88
590.65	5327.88
590.744	5229.88
590.838	5223.88
590.932	5385.88
591.026	5423.88
591.12	5554.88
591.214	5486.88
591.307	5410.88
591.401	5393.88
591.495	5569.88
591.589	5450.88
591.683	5512.88
591.777	5598.88
591.87	6026.88
591.964	5588.88
592.058	5638.88
592.152	5886.88
592.245	5834.88
592.339	6130.88
592.433	6189.88
592.527	6128.88
592.62	6120.88
592.714	6223.88
592.808	6475.88
592.901	6314.88
592.995	6359.88
593.089	6807.88
593.182	6458.88
593.276	6422.88
593.37	6512.88
593.463	6465.88
593.557	6486.88
593.65	6540.88
593.744	6526.88
593.837	6607.88
593.931	6547.88
594.025	10221.88
594.118	6820.88
594.212	6512.88
594.305	6474.88
594.399	6383.88
594.492	6429.88
594.586	6092.88
594.679	5998.88
594.773	5768.88
594.866	5875.88
594.96	5719.88
595.053	5548.88
595.146	5532.88
595.24	5452.88
595.333	5246.88
595.427	5085.88
595.52	5173.88
595.614	5132.88
595.707	4991.88
595.8	4933.88
595.894	4818.88
595.987	4768.88
596.08	4777.88
596.174	4995.88
596.267	4672.88
596.36	4652.88
596.454	4752.88
596.547	4519.88
596.64	4416.88
596.733	4428.88
596.827	4491.88
596.92	4390.88
597.013	4302.88
597.106	4174.88
597.2	4264.88
597.293	4245.88
597.386	4511.88
597.479	4225.88
597.572	4171.88
597.666	4173.88
597.759	4126.88
597.852	4198.88
597.945	4206.88
598.038	4063.88
598.131	4044.88
598.224	4160.88
598.317	4136.88
598.411	4019.88
598.504	4057.88
598.597	4035.88
598.69	4015.88
598.783	4059.88
598.876	4018.88
598.969	4056.88
599.062	4026.88
599.155	4078.88
599.248	3938.88
599.341	3968.88
599.434	3972.88
599.527	3958.88
599.62	3866.88
599.713	3908.88
599.806	4000.88
599.899	4095.88
599.991	3927.88
600.084	4188.88
600.177	3845.88
600.27	3814.88
600.363	4061.88
600.456	3789.88
600.549	3886.88
600.642	3699.88
600.734	3670.88
600.827	3733.88
600.92	3980.88
601.013	3726.88
601.106	3796.88
601.199	3722.88
601.291	3758.88
601.384	3709.88
601.477	3920.88
601.57	3902.88
601.662	3654.88
601.755	3675.88
601.848	3782.88
601.94	3670.88
602.033	3873.88
602.126	3702.88
602.219	3607.88
602.311	3801.88
602.404	3599.88
602.497	3648.88
602.589	3551.88
602.682	3641.88
602.774	3753.88
602.867	3638.88
602.96	3624.88
603.052	3716.88
603.145	3635.88
603.237	3628.88
603.33	3577.88
603.422	3720.88
603.515	3537.88
603.608	3589.88
603.7	3624.88
603.793	3585.88
603.885	3599.88
603.978	3611.88
604.07	3518.88
604.163	3514.88
604.255	3593.88
604.347	3480.88
604.44	3403.88
604.532	3479.88
604.625	3525.88
604.717	3408.88
604.81	3605.88
604.902	3513.88
604.994	3477.88
605.087	3438.88
605.179	3567.88
605.271	3518.88
605.364	3478.88
605.456	3547.88
605.548	3497.88
605.641	3498.88
605.733	3529.88
605.825	3571.88
605.918	3402.88
606.01	3705.88
606.102	3843.88
606.194	3397.88
606.287	3537.88
606.379	3483.88
606.471	3451.88
606.563	3517.88
606.655	3519.88
606.748	3427.88
606.84	3363.88
606.932	3537.88
607.024	3426.88
607.116	3336.88
607.208	3337.88
607.301	3446.88
607.393	3406.88
607.485	3356.88
607.577	3404.88
607.669	3459.88
607.761	3481.88
607.853	3672.88
607.945	3276.88
608.037	3254.88
608.129	3358.88
608.221	3355.88
608.313	3296.88
608.405	3446.88
608.497	3342.88
608.589	3233.88
608.681	3317.88
608.773	3412.88
608.865	3268.88
608.957	3344.88
609.049	3392.88
609.141	3369.88
609.233	3292.88
609.325	3310.88
609.417	3296.88
609.509	3367.88
609.601	3445.88
609.693	3462.88
609.784	3265.88
609.876	3271.88
609.968	3372.88
610.06	5519.88
610.152	3509.88
610.244	4152.88
610.335	3276.88
610.427	3258.88
610.519	3275.88
610.611	3234.88
610.702	3176.88
610.794	3221.88
610.886	3275.88
610.978	3163.88
611.069	3594.88
611.161	3125.88
611.253	3224.88
611.344	2949.88
611.436	2893.88
611.528	2946.88
611.62	2850.88
611.711	2937.88
611.803	2826.88
611.894	2782.88
611.986	2751.88
612.078	2783.88
612.169	2647.88
612.261	2695.88
612.352	2597.88
612.444	2535.88
612.536	2694.88
612.627	2560.88
612.719	2343.88
612.81	2320.88
612.902	2382.88
612.993	2393.88
613.085	2288.88
613.176	2281.88
613.268	2292.88
613.359	2199.88
613.451	2189.88
613.542	2175.88
613.634	2092.88
613.725	2079.88
613.816	2229.88
613.908	1937.88
613.999	1900.88
614.091	1876.88
614.182	1788.88
614.273	1854.88
614.365	1773.88
614.456	1626.88
614.547	1688.88
614.639	1612.88
614.73	1697.88
614.821	1598.88
614.913	1470.88
615.004	1467.88
615.095	1355.88
615.187	1393.88
