Data from 21g_HRC06701__94__338.txt Node

Date: Thu Apr 18 02:09:13 CDT 2024
User: Estudiantes 2
Spectrometer: HR+C0670
Trigger mode: 4
Integration Time (sec): 1.000000E0
Scans to average: 1
Electric dark correction enabled: true
Nonlinearity correction enabled: false
Boxcar width: 0
XAxis mode: Wavelengths
Number of Pixels in Spectrum: 2048
>>>>>Begin Spectral Data<<<<<
407.81	-147.62
407.921	-147.62
408.032	-147.62
408.143	-130.62
408.254	-112.62
408.365	25.38
408.476	250.38
408.587	15.38
408.699	-32.62
408.81	-4.62
408.921	1.38
409.032	-46.62
409.143	52.38
409.254	56.38
409.365	63.38
409.476	-69.62
409.587	-4.62
409.698	84.38
409.809	64.38
409.92	-19.62
410.031	-6.62
410.142	57.38
410.253	2.38
410.364	68.38
410.475	960.38
410.585	4748.38
410.696	5163.38
410.807	4996.38
410.918	5036.38
411.029	5159.38
411.14	5253.38
411.251	5148.38
411.362	5126.38
411.472	5458.38
411.583	5276.38
411.694	5493.38
411.805	5500.38
411.916	5424.38
412.026	5494.38
412.137	5321.38
412.248	5248.38
412.359	5325.38
412.47	5165.38
412.58	5097.38
412.691	5135.38
412.802	5084.38
412.912	5176.38
413.023	5150.38
413.134	5102.38
413.245	5284.38
413.355	5187.38
413.466	5204.38
413.577	5289.38
413.687	5323.38
413.798	4973.38
413.909	5245.38
414.019	5245.38
414.13	5302.38
414.24	5385.38
414.351	5491.38
414.462	5611.38
414.572	5408.38
414.683	5553.38
414.793	5416.38
414.904	5666.38
415.014	5335.38
415.125	5282.38
415.235	5319.38
415.346	5574.38
415.456	5552.38
415.567	5317.38
415.677	5363.38
415.788	5404.38
415.898	5227.38
416.009	5266.38
416.119	5361.38
416.23	5355.38
416.34	5269.38
416.45	5361.38
416.561	6187.38
416.671	5498.38
416.782	5450.38
416.892	5507.38
417.002	5359.38
417.113	5627.38
417.223	5550.38
417.333	5543.38
417.444	5622.38
417.554	5679.38
417.664	5839.38
417.775	5664.38
417.885	5899.38
417.995	5815.38
418.106	6201.38
418.216	6116.38
418.326	6218.38
418.436	6188.38
418.547	6279.38
418.657	6232.38
418.767	6374.38
418.877	6388.38
418.987	6555.38
419.098	6468.38
419.208	6509.38
419.318	6530.38
419.428	6467.38
419.538	6336.38
419.648	6538.38
419.759	6379.38
419.869	6393.38
419.979	6382.38
420.089	6486.38
420.199	6288.38
420.309	6475.38
420.419	6462.38
420.529	6390.38
420.639	6800.38
420.749	6664.38
420.859	6602.38
420.969	6577.38
421.079	6769.38
421.189	6611.38
421.299	6551.38
421.409	6600.38
421.519	6890.38
421.629	6891.38
421.739	6759.38
421.849	6929.38
421.959	6879.38
422.069	7069.38
422.179	7121.38
422.289	7140.38
422.399	7233.38
422.509	7512.38
422.619	10005.38
422.729	7713.38
422.838	7408.38
422.948	7678.38
423.058	7836.38
423.168	7856.38
423.278	7912.38
423.388	7994.38
423.498	8247.38
423.607	8237.38
423.717	8512.38
423.827	8567.38
423.937	8375.38
424.046	8422.38
424.156	8418.38
424.266	8351.38
424.376	8615.38
424.485	8471.38
424.595	8426.38
424.705	8545.38
424.815	8410.38
424.924	8902.38
425.034	8580.38
425.144	8463.38
425.253	8411.38
425.363	8567.38
425.473	8694.38
425.582	8297.38
425.692	8465.38
425.801	8351.38
425.911	8630.38
426.021	8560.38
426.13	8704.38
426.24	8641.38
426.349	8697.38
426.459	8692.38
426.568	8673.38
426.678	8721.38
426.787	8697.38
426.897	8751.38
427.006	8929.38
427.116	8900.38
427.225	8993.38
427.335	8982.38
427.444	8862.38
427.554	8967.38
427.663	9100.38
427.773	8990.38
427.882	9147.38
427.992	8971.38
428.101	9259.38
428.21	9196.38
428.32	9443.38
428.429	9246.38
428.539	9574.38
428.648	9419.38
428.757	9342.38
428.867	9545.38
428.976	9797.38
429.085	9568.38
429.195	9637.38
429.304	9560.38
429.413	9673.38
429.523	9803.38
429.632	9854.38
429.741	9769.38
429.85	9714.38
429.96	9994.38
430.069	10060.38
430.178	10062.38
430.287	10289.38
430.397	10288.38
430.506	9989.38
430.615	10165.38
430.724	10200.38
430.833	10402.38
430.943	10358.38
431.052	10538.38
431.161	10617.38
431.27	10857.38
431.379	10886.38
431.488	11468.38
431.597	11229.38
431.706	11611.38
431.816	11463.38
431.925	11377.38
432.034	11200.38
432.143	11293.38
432.252	11248.38
432.361	11197.38
432.47	11343.38
432.579	11137.38
432.688	11107.38
432.797	11252.38
432.906	11255.38
433.015	11499.38
433.124	11639.38
433.233	11525.38
433.342	11392.38
433.451	11640.38
433.56	11671.38
433.669	11624.38
433.778	11513.38
433.886	11977.38
433.995	12069.38
434.104	12436.38
434.213	12385.38
434.322	12652.38
434.431	12987.38
434.54	13596.38
434.649	13926.38
434.757	13909.38
434.866	13457.38
434.975	13360.38
435.084	12975.38
435.193	12520.38
435.301	12408.38
435.41	12241.38
435.519	12277.38
435.628	11383.38
435.737	11484.38
435.845	11147.38
435.954	10973.38
436.063	11110.38
436.171	11104.38
436.28	11058.38
436.389	11465.38
436.498	11028.38
436.606	11208.38
436.715	11371.38
436.823	10877.38
436.932	10746.38
437.041	10611.38
437.149	10699.38
437.258	10381.38
437.367	10201.38
437.475	10337.38
437.584	10385.38
437.692	10204.38
437.801	11835.38
437.91	10206.38
438.018	10069.38
438.127	10089.38
438.235	10121.38
438.344	10124.38
438.452	10198.38
438.561	9956.38
438.669	9980.38
438.778	9732.38
438.886	10028.38
438.995	9801.38
439.103	10123.38
439.212	10265.38
439.32	10122.38
439.428	10164.38
439.537	10409.38
439.645	10558.38
439.754	10328.38
439.862	10194.38
439.97	10507.38
440.079	10610.38
440.187	10437.38
440.295	10804.38
440.404	10591.38
440.512	10668.38
440.62	10815.38
440.729	10949.38
440.837	10916.38
440.945	11909.38
441.054	11816.38
441.162	11654.38
441.27	12178.38
441.378	12533.38
441.487	12334.38
441.595	12702.38
441.703	12410.38
441.811	11963.38
441.92	11873.38
442.028	11466.38
442.136	11648.38
442.244	11552.38
442.352	11748.38
442.461	11480.38
442.569	11466.38
442.677	11556.38
442.785	11711.38
442.893	11398.38
443.001	11503.38
443.109	11468.38
443.217	11600.38
443.325	11617.38
443.434	12546.38
443.542	12314.38
443.65	12006.38
443.758	12287.38
443.866	12438.38
443.974	13018.38
444.082	12920.38
444.19	13547.38
444.298	14021.38
444.406	14562.38
444.514	14562.38
444.622	14562.38
444.73	14562.38
444.838	14459.38
444.946	13993.38
445.054	13245.38
445.161	13147.38
445.269	12449.38
445.377	12332.38
445.485	12221.38
445.593	11991.38
445.701	11904.38
445.809	11825.38
445.917	11675.38
446.025	11629.38
446.132	11542.38
446.24	11494.38
446.348	11424.38
446.456	11305.38
446.564	11292.38
446.671	11405.38
446.779	11184.38
446.887	11078.38
446.995	11037.38
447.102	11289.38
447.21	11109.38
447.318	10948.38
447.426	10902.38
447.533	11251.38
447.641	12130.38
447.749	10779.38
447.856	10901.38
447.964	10875.38
448.072	11034.38
448.179	10875.38
448.287	10892.38
448.395	11042.38
448.502	10731.38
448.61	10929.38
448.718	10892.38
448.825	10849.38
448.933	10964.38
449.04	10974.38
449.148	11145.38
449.256	11086.38
449.363	11151.38
449.471	11227.38
449.578	11437.38
449.686	11224.38
449.793	11665.38
449.901	11457.38
450.008	11645.38
450.116	11755.38
450.223	11710.38
450.331	11840.38
450.438	12269.38
450.546	12207.38
450.653	12448.38
450.76	12564.38
450.868	12534.38
450.975	12830.38
451.083	12704.38
451.19	12784.38
451.297	12470.38
451.405	12691.38
451.512	12754.38
451.619	12830.38
451.727	12982.38
451.834	12951.38
451.941	13049.38
452.049	12980.38
452.156	13017.38
452.263	13219.38
452.371	13225.38
452.478	13197.38
452.585	13351.38
452.692	13211.38
452.8	13516.38
452.907	13684.38
453.014	13486.38
453.121	13691.38
453.229	13501.38
453.336	13837.38
453.443	13766.38
453.55	13747.38
453.657	13714.38
453.765	13991.38
453.872	13856.38
453.979	14100.38
454.086	14081.38
454.193	14136.38
454.3	14072.38
454.407	14282.38
454.514	14378.38
454.621	14142.38
454.729	14100.38
454.836	14167.38
454.943	14525.38
455.05	14465.38
455.157	14511.38
455.264	14475.38
455.371	14562.38
455.478	14562.38
455.585	14562.38
455.692	14562.38
455.799	14562.38
455.906	14562.38
456.013	14562.38
456.12	14562.38
456.227	14562.38
456.334	14562.38
456.44	14562.38
456.547	14562.38
456.654	14562.38
456.761	14562.38
456.868	14562.38
456.975	14562.38
457.082	14562.38
457.189	14562.38
457.296	14562.38
457.402	14562.38
457.509	14562.38
457.616	14562.38
457.723	14562.38
457.83	14562.38
457.936	14562.38
458.043	14562.38
458.15	14562.38
458.257	14562.38
458.363	14562.38
458.47	14562.38
458.577	14562.38
458.684	14562.38
458.79	14562.38
458.897	14562.38
459.004	14562.38
459.11	14562.38
459.217	14562.38
459.324	14562.38
459.43	14562.38
459.537	14562.38
459.644	14562.38
459.75	14562.38
459.857	14562.38
459.964	14562.38
460.07	14562.38
460.177	14562.38
460.283	14562.38
460.39	14562.38
460.496	14562.38
460.603	14562.38
460.71	14562.38
460.816	14562.38
460.923	14562.38
461.029	14562.38
461.136	14562.38
461.242	14562.38
461.349	14562.38
461.455	14562.38
461.562	14562.38
461.668	14562.38
461.774	14562.38
461.881	14562.38
461.987	14562.38
462.094	14562.38
462.2	14562.38
462.307	14562.38
462.413	14562.38
462.519	14562.38
462.626	14562.38
462.732	14562.38
462.838	14562.38
462.945	14562.38
463.051	14562.38
463.157	14562.38
463.264	14562.38
463.37	14562.38
463.476	14562.38
463.583	14562.38
463.689	14562.38
463.795	14562.38
463.901	14562.38
464.008	14562.38
464.114	14562.38
464.22	14562.38
464.326	14562.38
464.433	14562.38
464.539	14562.38
464.645	14562.38
464.751	14562.38
464.857	14562.38
464.963	14562.38
465.07	14562.38
465.176	14562.38
465.282	14562.38
465.388	14562.38
465.494	14562.38
465.6	14562.38
465.706	14562.38
465.812	14562.38
465.918	14562.38
466.024	14562.38
466.131	14562.38
466.237	14562.38
466.343	14562.38
466.449	14562.38
466.555	14562.38
466.661	14562.38
466.767	14562.38
466.873	14562.38
466.979	14562.38
467.085	14562.38
467.191	14562.38
467.296	14562.38
467.402	14562.38
467.508	14562.38
467.614	14562.38
467.72	14562.38
467.826	14562.38
467.932	14562.38
468.038	14562.38
468.144	14562.38
468.25	14562.38
468.355	14562.38
468.461	14562.38
468.567	14562.38
468.673	14562.38
468.779	14562.38
468.885	14562.38
468.99	14562.38
469.096	14562.38
469.202	14562.38
469.308	14562.38
469.413	14562.38
469.519	14562.38
469.625	14562.38
469.731	14562.38
469.836	14562.38
469.942	14562.38
470.048	14562.38
470.153	14562.38
470.259	14562.38
470.365	14562.38
470.47	14562.38
470.576	14562.38
470.682	14562.38
470.787	14562.38
470.893	14562.38
470.999	14562.38
471.104	14562.38
471.21	14562.38
471.315	14308.38
471.421	14220.38
471.527	14221.38
471.632	14026.38
471.738	13858.38
471.843	13622.38
471.949	13586.38
472.054	13406.38
472.16	13144.38
472.265	13182.38
472.371	13214.38
472.476	13085.38
472.582	13161.38
472.687	12821.38
472.793	12860.38
472.898	12880.38
473.003	12713.38
473.109	12494.38
473.214	12433.38
473.32	12734.38
473.425	12529.38
473.53	12608.38
473.636	12586.38
473.741	12469.38
473.847	12320.38
473.952	12484.38
474.057	12419.38
474.163	12541.38
474.268	12414.38
474.373	12488.38
474.478	12392.38
474.584	12404.38
474.689	12481.38
474.794	12418.38
474.9	12733.38
475.005	12448.38
475.11	12592.38
475.215	12391.38
475.321	12491.38
475.426	12778.38
475.531	12663.38
475.636	12736.38
475.741	12649.38
475.846	12874.38
475.952	12999.38
476.057	12844.38
476.162	13116.38
476.267	13082.38
476.372	13509.38
476.477	13190.38
476.582	13278.38
476.687	13252.38
476.793	13326.38
476.898	13396.38
477.003	13471.38
477.108	13689.38
477.213	13822.38
477.318	13827.38
477.423	14211.38
477.528	14373.38
477.633	14562.38
477.738	14562.38
477.843	14562.38
477.948	14562.38
478.053	14562.38
478.158	14562.38
478.263	14562.38
478.368	14562.38
478.473	14562.38
478.578	14562.38
478.682	14562.38
478.787	14562.38
478.892	14562.38
478.997	14562.38
479.102	14562.38
479.207	14562.38
479.312	14562.38
479.417	14562.38
479.521	14562.38
479.626	14562.38
479.731	14562.38
479.836	14562.38
479.941	14562.38
480.045	14562.38
480.15	14562.38
480.255	14562.38
480.36	14562.38
480.465	14562.38
480.569	14562.38
480.674	14562.38
480.779	14562.38
480.883	14562.38
480.988	14562.38
481.093	14562.38
481.197	14562.38
481.302	14562.38
481.407	14562.38
481.511	14562.38
481.616	14562.38
481.721	14562.38
481.825	14562.38
481.93	14562.38
482.035	14562.38
482.139	14562.38
482.244	14562.38
482.348	14562.38
482.453	14562.38
482.557	14562.38
482.662	14562.38
482.767	14562.38
482.871	14562.38
482.976	14562.38
483.08	14562.38
483.185	14562.38
483.289	14562.38
483.394	14562.38
483.498	14562.38
483.603	14562.38
483.707	14562.38
483.811	14562.38
483.916	14562.38
484.02	14562.38
484.125	14562.38
484.229	14562.38
484.333	14562.38
484.438	14562.38
484.542	14562.38
484.647	14562.38
484.751	14562.38
484.855	14562.38
484.96	14562.38
485.064	14562.38
485.168	14562.38
485.273	14562.38
485.377	14562.38
485.481	14562.38
485.585	14562.38
485.69	14562.38
485.794	14562.38
485.898	14562.38
486.002	14562.38
486.107	14562.38
486.211	14562.38
486.315	14562.38
486.419	14562.38
486.524	14562.38
486.628	14562.38
486.732	14562.38
486.836	14562.38
486.94	14562.38
487.044	14562.38
487.148	14562.38
487.253	14562.38
487.357	14562.38
487.461	14562.38
487.565	14562.38
487.669	14562.38
487.773	14562.38
487.877	14562.38
487.981	14562.38
488.085	14562.38
488.189	14562.38
488.293	14562.38
488.397	14562.38
488.501	14562.38
488.605	14562.38
488.709	14562.38
488.813	14562.38
488.917	14562.38
489.021	14562.38
489.125	14562.38
489.229	14562.38
489.333	14562.38
489.437	14562.38
489.541	14562.38
489.645	14562.38
489.749	14562.38
489.853	14562.38
489.956	14562.38
490.06	14562.38
490.164	14562.38
490.268	14562.38
490.372	14562.38
490.476	14562.38
490.579	14562.38
490.683	14562.38
490.787	14562.38
490.891	14562.38
490.995	14562.38
491.098	14562.38
491.202	14562.38
491.306	14562.38
491.41	14562.38
491.513	14562.38
491.617	14562.38
491.721	14562.38
491.824	14562.38
491.928	14562.38
492.032	14562.38
492.136	14562.38
492.239	14562.38
492.343	14562.38
492.446	14562.38
492.55	14562.38
492.654	14562.38
492.757	14562.38
492.861	14562.38
492.965	14562.38
493.068	14562.38
493.172	14562.38
493.275	14562.38
493.379	14562.38
493.482	14562.38
493.586	14562.38
493.689	14562.38
493.793	14562.38
493.896	14562.38
494	14562.38
494.103	14562.38
494.207	14562.38
494.31	14562.38
494.414	14562.38
494.517	14562.38
494.621	14562.38
494.724	14562.38
494.828	14562.38
494.931	14562.38
495.034	14562.38
495.138	14562.38
495.241	14562.38
495.345	14562.38
495.448	14562.38
495.551	14562.38
495.655	14562.38
495.758	14562.38
495.861	14562.38
495.965	14562.38
496.068	14562.38
496.171	14562.38
496.274	14562.38
496.378	14562.38
496.481	14562.38
496.584	14562.38
496.687	14562.38
496.791	14562.38
496.894	14562.38
496.997	14562.38
497.1	14562.38
497.204	14562.38
497.307	14562.38
497.41	14562.38
497.513	14562.38
497.616	14562.38
497.719	14562.38
497.823	14562.38
497.926	14562.38
498.029	14562.38
498.132	14562.38
498.235	14562.38
498.338	14562.38
498.441	14562.38
498.544	14562.38
498.647	14562.38
498.75	14562.38
498.853	14562.38
498.956	14562.38
499.059	14562.38
499.163	14562.38
499.266	14562.38
499.369	14562.38
499.471	14562.38
499.574	14562.38
499.677	14562.38
499.78	14562.38
499.883	14562.38
499.986	14562.38
500.089	14562.38
500.192	14562.38
500.295	14562.38
500.398	14562.38
500.501	14562.38
500.604	14562.38
500.707	14562.38
500.809	14562.38
500.912	14562.38
501.015	14562.38
501.118	14562.38
501.221	14562.38
501.324	14562.38
501.426	14562.38
501.529	14562.38
501.632	14562.38
501.735	14562.38
501.837	14562.38
501.94	14562.38
502.043	14562.38
502.146	14562.38
502.248	14562.38
502.351	14562.38
502.454	14562.38
502.557	14562.38
502.659	14562.38
502.762	14562.38
502.865	14562.38
502.967	14562.38
503.07	14562.38
503.173	14562.38
503.275	14562.38
503.378	14562.38
503.48	14562.38
503.583	14562.38
503.686	14562.38
503.788	14562.38
503.891	14562.38
503.993	14562.38
504.096	14562.38
504.198	14562.38
504.301	14562.38
504.403	14562.38
504.506	14562.38
504.608	14562.38
504.711	14562.38
504.813	14562.38
504.916	14562.38
505.018	14562.38
505.121	14562.38
505.223	14562.38
505.326	14562.38
505.428	14562.38
505.531	14562.38
505.633	14562.38
505.735	14562.38
505.838	14562.38
505.94	14562.38
506.042	14562.38
506.145	14562.38
506.247	14562.38
506.35	14562.38
506.452	14562.38
506.554	14562.38
506.656	14562.38
506.759	14562.38
506.861	14562.38
506.963	14562.38
507.066	14562.38
507.168	14562.38
507.27	14562.38
507.372	14562.38
507.475	14562.38
507.577	14562.38
507.679	14562.38
507.781	14562.38
507.883	14472.38
507.986	14445.38
508.088	14346.38
508.19	14523.38
508.292	14402.38
508.394	14175.38
508.496	14223.38
508.598	14135.38
508.701	14239.38
508.803	14083.38
508.905	13990.38
509.007	13885.38
509.109	14150.38
509.211	13967.38
509.313	13899.38
509.415	13825.38
509.517	13937.38
509.619	13823.38
509.721	13841.38
509.823	13795.38
509.925	14025.38
510.027	13775.38
510.129	13612.38
510.231	13891.38
510.333	13706.38
510.435	13612.38
510.537	13822.38
510.639	13830.38
510.741	13835.38
510.843	13695.38
510.945	13617.38
511.047	13897.38
511.148	13810.38
511.25	13668.38
511.352	13881.38
511.454	13657.38
511.556	13917.38
511.658	13700.38
511.76	13863.38
511.861	14110.38
511.963	13636.38
512.065	13653.38
512.167	13684.38
512.268	14187.38
512.37	13880.38
512.472	14041.38
512.574	13929.38
512.676	14065.38
512.777	13806.38
512.879	13847.38
512.981	13919.38
513.082	13993.38
513.184	14073.38
513.286	14538.38
513.387	14229.38
513.489	14340.38
513.591	14291.38
513.692	14298.38
513.794	14326.38
513.896	14155.38
513.997	14418.38
514.099	14382.38
514.2	14562.38
514.302	14562.38
514.404	14531.38
514.505	14562.38
514.607	14562.38
514.708	14562.38
514.81	14562.38
514.911	14562.38
515.013	14562.38
515.114	14562.38
515.216	14562.38
515.317	14562.38
515.419	14562.38
515.52	14562.38
515.622	14562.38
515.723	14562.38
515.825	14562.38
515.926	14562.38
516.027	14562.38
516.129	14562.38
516.23	14562.38
516.332	14562.38
516.433	14562.38
516.534	14562.38
516.636	14562.38
516.737	14562.38
516.838	14562.38
516.94	14562.38
517.041	14562.38
517.142	14562.38
517.244	14562.38
517.345	14562.38
517.446	14562.38
517.547	14562.38
517.649	14562.38
517.75	14562.38
517.851	14562.38
517.952	14562.38
518.054	14562.38
518.155	14562.38
518.256	14562.38
518.357	14562.38
518.458	14562.38
518.56	14562.38
518.661	14562.38
518.762	14562.38
518.863	14562.38
518.964	14562.38
519.065	14562.38
519.166	14562.38
519.268	14562.38
519.369	14562.38
519.47	14562.38
519.571	14562.38
519.672	14562.38
519.773	14562.38
519.874	14562.38
519.975	14562.38
520.076	14562.38
520.177	14562.38
520.278	14562.38
520.379	14562.38
520.48	14562.38
520.581	14562.38
520.682	14562.38
520.783	14562.38
520.884	14562.38
520.985	14562.38
521.086	14562.38
521.187	14562.38
521.288	14562.38
521.389	14562.38
521.489	14562.38
521.59	14562.38
521.691	14562.38
521.792	14562.38
521.893	14562.38
521.994	14562.38
522.095	14562.38
522.195	14562.38
522.296	14562.38
522.397	14562.38
522.498	14562.38
522.599	14562.38
522.699	14562.38
522.8	14562.38
522.901	14562.38
523.002	14562.38
523.102	14562.38
523.203	14562.38
523.304	14562.38
523.405	14562.38
523.505	14562.38
523.606	14562.38
523.707	14562.38
523.807	14562.38
523.908	14562.38
524.009	14562.38
524.109	14562.38
524.21	14562.38
524.31	14562.38
524.411	14562.38
524.512	14562.38
524.612	14562.38
524.713	14562.38
524.813	14562.38
524.914	14562.38
525.014	14562.38
525.115	14562.38
525.216	14562.38
525.316	14562.38
525.417	14562.38
525.517	14562.38
525.618	14562.38
525.718	14562.38
525.819	14562.38
525.919	14562.38
526.019	14562.38
526.12	14562.38
526.22	14562.38
526.321	14562.38
526.421	14562.38
526.522	14562.38
526.622	14562.38
526.722	14562.38
526.823	14562.38
526.923	14562.38
527.023	14562.38
527.124	14562.38
527.224	14562.38
527.324	14562.38
527.425	14562.38
527.525	14562.38
527.625	14562.38
527.726	14562.38
527.826	14562.38
527.926	14562.38
528.026	14562.38
528.127	14562.38
528.227	14562.38
528.327	14562.38
528.427	14562.38
528.528	14562.38
528.628	14562.38
528.728	14562.38
528.828	14562.38
528.928	14562.38
529.029	14562.38
529.129	14562.38
529.229	14562.38
529.329	14562.38
529.429	14562.38
529.529	14562.38
529.629	14562.38
529.729	14562.38
529.829	14562.38
529.93	14562.38
530.03	14562.38
530.13	14562.38
530.23	14562.38
530.33	14562.38
530.43	14562.38
530.53	14562.38
530.63	14562.38
530.73	14562.38
530.83	14562.38
530.93	14562.38
531.03	14562.38
531.13	14562.38
531.23	14562.38
531.33	14562.38
531.429	14562.38
531.529	14562.38
531.629	14562.38
531.729	14562.38
531.829	14562.38
531.929	14562.38
532.029	14562.38
532.129	14562.38
532.229	14562.38
532.328	14562.38
532.428	14562.38
532.528	14562.38
532.628	14562.38
532.728	14562.38
532.827	14562.38
532.927	14562.38
533.027	14562.38
533.127	14562.38
533.227	14562.38
533.326	14562.38
533.426	14562.38
533.526	14562.38
533.625	14562.38
533.725	14562.38
533.825	14562.38
533.924	14562.38
534.024	14562.38
534.124	14562.38
534.223	14562.38
534.323	14562.38
534.423	14562.38
534.522	14562.38
534.622	14562.38
534.722	14562.38
534.821	14562.38
534.921	14562.38
535.02	14562.38
535.12	14562.38
535.219	14562.38
535.319	14562.38
535.419	14562.38
535.518	14476.38
535.618	14494.38
535.717	14521.38
535.817	14231.38
535.916	14132.38
536.016	14150.38
536.115	14109.38
536.215	14074.38
536.314	13745.38
536.413	13868.38
536.513	13819.38
536.612	13725.38
536.712	13647.38
536.811	13703.38
536.91	13577.38
537.01	13463.38
537.109	13718.38
537.209	13563.38
537.308	13525.38
537.407	13417.38
537.507	13442.38
537.606	13404.38
537.705	13521.38
537.805	13220.38
537.904	13179.38
538.003	13278.38
538.102	13367.38
538.202	13102.38
538.301	13216.38
538.4	13275.38
538.499	13081.38
538.599	12983.38
538.698	13228.38
538.797	13063.38
538.896	12853.38
538.995	12873.38
539.095	12776.38
539.194	13044.38
539.293	12790.38
539.392	12738.38
539.491	12695.38
539.59	12596.38
539.689	12816.38
539.789	12569.38
539.888	12548.38
539.987	12388.38
540.086	12493.38
540.185	12356.38
540.284	12370.38
540.383	12421.38
540.482	12391.38
540.581	12253.38
540.68	12261.38
540.779	12308.38
540.878	12300.38
540.977	12305.38
541.076	12279.38
541.175	12093.38
541.274	12335.38
541.373	12087.38
541.472	12050.38
541.571	12083.38
541.67	13470.38
541.769	11965.38
541.868	11962.38
541.966	12045.38
542.065	11964.38
542.164	11858.38
542.263	11729.38
542.362	11651.38
542.461	11878.38
542.56	11825.38
542.658	11991.38
542.757	11781.38
542.856	11749.38
542.955	11799.38
543.054	11600.38
543.152	11792.38
543.251	11683.38
543.35	11862.38
543.449	11726.38
543.547	11695.38
543.646	11581.38
543.745	11652.38
543.843	11933.38
543.942	11750.38
544.041	11776.38
544.14	11805.38
544.238	11828.38
544.337	12117.38
544.436	11996.38
544.534	12120.38
544.633	11989.38
544.731	11946.38
544.83	11994.38
544.929	12033.38
545.027	12175.38
545.126	12102.38
545.224	12353.38
545.323	12071.38
545.421	11988.38
545.52	12261.38
545.619	12190.38
545.717	11979.38
545.816	12159.38
545.914	12189.38
546.013	12196.38
546.111	12357.38
546.209	12014.38
546.308	11955.38
546.406	11927.38
546.505	12141.38
546.603	11965.38
546.702	11976.38
546.8	11914.38
546.899	11752.38
546.997	11902.38
547.095	11868.38
547.194	12010.38
547.292	11941.38
547.39	12107.38
547.489	12052.38
547.587	12371.38
547.685	12012.38
547.784	12652.38
547.882	12223.38
547.98	12012.38
548.079	12289.38
548.177	12152.38
548.275	12190.38
548.373	12333.38
548.472	11983.38
548.57	12080.38
548.668	12288.38
548.766	12146.38
548.864	12140.38
548.963	12291.38
549.061	12522.38
549.159	12277.38
549.257	12552.38
549.355	12562.38
549.454	12440.38
549.552	12585.38
549.65	12606.38
549.748	12305.38
549.846	12321.38
549.944	12346.38
550.042	12150.38
550.14	12061.38
550.238	12197.38
550.336	12007.38
550.434	11856.38
550.532	11754.38
550.631	12062.38
550.729	11950.38
550.827	11951.38
550.925	11876.38
551.023	11786.38
551.121	11965.38
551.218	11969.38
551.316	11940.38
551.414	11977.38
551.512	11926.38
551.61	12226.38
551.708	12194.38
551.806	12295.38
551.904	12206.38
552.002	12458.38
552.1	12705.38
552.198	12699.38
552.296	12986.38
552.393	13207.38
552.491	13388.38
552.589	13386.38
552.687	13461.38
552.785	13705.38
552.882	13928.38
552.98	14119.38
553.078	14015.38
553.176	14134.38
553.274	13935.38
553.371	13856.38
553.469	14026.38
553.567	13816.38
553.665	13472.38
553.762	13824.38
553.86	13309.38
553.958	13092.38
554.055	12925.38
554.153	12931.38
554.251	12689.38
554.348	12587.38
554.446	12549.38
554.544	12322.38
554.641	12654.38
554.739	12170.38
554.837	12123.38
554.934	12185.38
555.032	12018.38
555.129	11844.38
555.227	12025.38
555.324	14562.38
555.422	11893.38
555.519	11496.38
555.617	11529.38
555.715	11329.38
555.812	11726.38
555.91	11296.38
556.007	11300.38
556.105	11033.38
556.202	11202.38
556.299	11087.38
556.397	11292.38
556.494	11001.38
556.592	11087.38
556.689	11145.38
556.787	11105.38
556.884	10956.38
556.981	11066.38
557.079	10917.38
557.176	11127.38
557.273	10925.38
557.371	10914.38
557.468	10908.38
557.566	10975.38
557.663	10991.38
557.76	10887.38
557.857	10879.38
557.955	11000.38
558.052	10984.38
558.149	10984.38
558.247	11121.38
558.344	10741.38
558.441	10852.38
558.538	10972.38
558.636	10785.38
558.733	10993.38
558.83	10995.38
558.927	10977.38
559.024	10835.38
559.122	10908.38
559.219	10868.38
559.316	10922.38
559.413	11098.38
559.51	10982.38
559.607	10922.38
559.704	10983.38
559.801	11065.38
559.899	10920.38
559.996	11388.38
560.093	11132.38
560.19	10888.38
560.287	11108.38
560.384	11305.38
560.481	11177.38
560.578	11097.38
560.675	11039.38
560.772	11348.38
560.869	11245.38
560.966	11403.38
561.063	11305.38
561.16	11302.38
561.257	11351.38
561.354	11395.38
561.451	11359.38
561.548	11403.38
561.645	11629.38
561.742	11498.38
561.838	11475.38
561.935	11565.38
562.032	11607.38
562.129	11405.38
562.226	11525.38
562.323	11613.38
562.42	11694.38
562.516	11721.38
562.613	11765.38
562.71	11929.38
562.807	12660.38
562.904	11814.38
563	11987.38
563.097	11903.38
563.194	12028.38
563.291	12019.38
563.387	12126.38
563.484	12260.38
563.581	12374.38
563.678	12241.38
563.774	12808.38
563.871	12752.38
563.968	12622.38
564.064	12638.38
564.161	12725.38
564.258	13125.38
564.354	13243.38
564.451	13373.38
564.548	13450.38
564.644	13581.38
564.741	13756.38
564.837	13847.38
564.934	13953.38
565.031	14239.38
565.127	14549.38
565.224	14562.38
565.32	14562.38
565.417	14562.38
565.513	14562.38
565.61	14562.38
565.706	14562.38
565.803	14562.38
565.899	14562.38
565.996	14562.38
566.092	14562.38
566.189	14562.38
566.285	14562.38
566.382	14562.38
566.478	14562.38
566.574	14562.38
566.671	14562.38
566.767	14562.38
566.864	14562.38
566.96	14562.38
567.056	14562.38
567.153	14562.38
567.249	14562.38
567.345	14562.38
567.442	14562.38
567.538	14562.38
567.634	14562.38
567.731	14562.38
567.827	14562.38
567.923	14562.38
568.019	14562.38
568.116	14562.38
568.212	14562.38
568.308	14562.38
568.404	14562.38
568.501	14562.38
568.597	14562.38
568.693	14562.38
568.789	14562.38
568.885	14562.38
568.982	14562.38
569.078	14562.38
569.174	14562.38
569.27	14562.38
569.366	14562.38
569.462	14562.38
569.558	14562.38
569.655	14562.38
569.751	14326.38
569.847	14250.38
569.943	14085.38
570.039	13868.38
570.135	14460.38
570.231	13977.38
570.327	14107.38
570.423	14008.38
570.519	14028.38
570.615	13990.38
570.711	14144.38
570.807	14212.38
570.903	14159.38
570.999	13999.38
571.095	13879.38
571.191	13558.38
571.287	13327.38
571.383	13111.38
571.479	12807.38
571.574	12651.38
571.67	12497.38
571.766	12487.38
571.862	12135.38
571.958	11921.38
572.054	12020.38
572.15	11742.38
572.246	11604.38
572.341	11668.38
572.437	11453.38
572.533	11501.38
572.629	11560.38
572.725	11380.38
572.82	11191.38
572.916	11276.38
573.012	11150.38
573.108	11183.38
573.203	11057.38
573.299	11018.38
573.395	10903.38
573.49	10795.38
573.586	10808.38
573.682	10780.38
573.778	10765.38
573.873	10674.38
573.969	10763.38
574.065	10673.38
574.16	10684.38
574.256	10632.38
574.351	10728.38
574.447	10650.38
574.543	10840.38
574.638	10820.38
574.734	10618.38
574.829	10743.38
574.925	10332.38
575.02	10204.38
575.116	10315.38
575.212	10232.38
575.307	10189.38
575.403	9993.38
575.498	10200.38
575.594	10001.38
575.689	10070.38
575.784	9924.38
575.88	9824.38
575.975	9755.38
576.071	9765.38
576.166	9656.38
576.262	9763.38
576.357	9744.38
576.452	9862.38
576.548	9589.38
576.643	9482.38
576.739	9589.38
576.834	9477.38
576.929	9477.38
577.025	9842.38
577.12	9231.38
577.215	9199.38
577.311	9484.38
577.406	9336.38
577.501	9422.38
577.597	9060.38
577.692	9199.38
577.787	9032.38
577.882	8981.38
577.978	8951.38
578.073	8814.38
578.168	8784.38
578.263	8803.38
578.358	8763.38
578.454	8663.38
578.549	8684.38
578.644	8641.38
578.739	8658.38
578.834	8631.38
578.929	8528.38
579.025	8575.38
579.12	8494.38
579.215	8759.38
579.31	8537.38
579.405	8322.38
579.5	8502.38
579.595	8351.38
579.69	8259.38
579.785	8191.38
579.88	8167.38
579.975	8124.38
580.07	8089.38
580.165	8125.38
580.26	8272.38
580.355	8055.38
580.45	8095.38
580.545	7997.38
580.64	8021.38
580.735	8082.38
580.83	8084.38
580.925	7860.38
581.02	7856.38
581.115	7808.38
581.21	7694.38
581.305	7818.38
581.4	7783.38
581.495	7719.38
581.589	7669.38
581.684	7663.38
581.779	7698.38
581.874	7749.38
581.969	7909.38
582.064	7536.38
582.158	7582.38
582.253	7516.38
582.348	7563.38
582.443	7524.38
582.537	7473.38
582.632	7645.38
582.727	7354.38
582.822	7420.38
582.916	7425.38
583.011	7450.38
583.106	7370.38
583.201	7292.38
583.295	7403.38
583.39	7225.38
583.485	7238.38
583.579	8887.38
583.674	7344.38
583.769	7528.38
583.863	7112.38
583.958	7192.38
584.052	7195.38
584.147	7065.38
584.242	6982.38
584.336	7043.38
584.431	7311.38
584.525	7087.38
584.62	7254.38
584.714	7145.38
584.809	7020.38
584.903	7073.38
584.998	7151.38
585.092	6940.38
585.187	7027.38
585.281	6949.38
585.376	7017.38
585.47	6992.38
585.565	6971.38
585.659	6923.38
585.754	7006.38
585.848	7003.38
585.942	6901.38
586.037	6804.38
586.131	8323.38
586.226	6881.38
586.32	6909.38
586.414	6775.38
586.509	6866.38
586.603	6944.38
586.697	6752.38
586.792	6684.38
586.886	6680.38
586.98	6718.38
587.075	6689.38
587.169	6735.38
587.263	6885.38
587.357	6741.38
587.452	6673.38
587.546	6853.38
587.64	6616.38
587.734	6799.38
587.829	6738.38
587.923	6669.38
588.017	6742.38
588.111	6904.38
588.205	6929.38
588.3	6950.38
588.394	7009.38
588.488	7159.38
588.582	7523.38
588.676	8374.38
588.77	12367.38
588.864	14562.38
588.958	14562.38
589.052	14562.38
589.147	11588.38
589.241	9283.38
589.335	9583.38
589.429	14562.38
589.523	14562.38
589.617	14562.38
589.711	11024.38
589.805	8414.38
589.899	7707.38
589.993	7076.38
590.087	6831.38
590.181	6830.38
590.275	6857.38
590.369	6729.38
590.462	6664.38
590.556	6638.38
590.65	6754.38
590.744	6665.38
590.838	6746.38
590.932	6684.38
591.026	6768.38
591.12	7094.38
591.214	6756.38
591.307	6709.38
591.401	6919.38
591.495	7017.38
591.589	6889.38
591.683	6986.38
591.777	7152.38
591.87	7537.38
591.964	7255.38
592.058	7307.38
592.152	7484.38
592.245	7483.38
592.339	7749.38
592.433	7895.38
592.527	7834.38
592.62	8022.38
592.714	8240.38
592.808	8390.38
592.901	8410.38
592.995	8383.38
593.089	8760.38
593.182	8504.38
593.276	8525.38
593.37	8361.38
593.463	8393.38
593.557	8459.38
593.65	8432.38
593.744	8595.38
593.837	8690.38
593.931	8684.38
594.025	12184.38
594.118	8850.38
594.212	8393.38
594.305	8233.38
594.399	8117.38
594.492	8277.38
594.586	7792.38
594.679	7611.38
594.773	7493.38
594.866	7389.38
594.96	7250.38
595.053	7170.38
595.146	7046.38
595.24	6767.38
595.333	6796.38
595.427	6557.38
595.52	6427.38
595.614	6600.38
595.707	6398.38
595.8	6208.38
595.894	6130.38
595.987	6118.38
596.08	5987.38
596.174	6187.38
596.267	6015.38
596.36	6055.38
596.454	5921.38
596.547	5750.38
596.64	5621.38
596.733	5595.38
596.827	5604.38
596.92	5561.38
597.013	5421.38
597.106	5254.38
597.2	5454.38
597.293	5287.38
597.386	5553.38
597.479	5387.38
597.572	5325.38
597.666	5208.38
597.759	5268.38
597.852	5373.38
597.945	5239.38
598.038	5221.38
598.131	5243.38
598.224	5168.38
598.317	5247.38
598.411	5182.38
598.504	5110.38
598.597	5194.38
598.69	5096.38
598.783	5000.38
598.876	5065.38
598.969	5111.38
599.062	5112.38
599.155	5141.38
599.248	5037.38
599.341	5035.38
599.434	4927.38
599.527	5110.38
599.62	4985.38
599.713	4919.38
599.806	4983.38
599.899	5129.38
599.991	4807.38
600.084	5099.38
600.177	4916.38
600.27	4896.38
600.363	4967.38
600.456	4753.38
600.549	4955.38
600.642	4773.38
600.734	4805.38
600.827	4839.38
600.92	4907.38
601.013	4765.38
601.106	4945.38
601.199	4817.38
601.291	4668.38
601.384	4721.38
601.477	4901.38
601.57	4735.38
601.662	4681.38
601.755	4797.38
601.848	4710.38
601.94	4626.38
602.033	4863.38
602.126	4641.38
602.219	4677.38
602.311	4863.38
602.404	4686.38
602.497	4636.38
602.589	4692.38
602.682	4657.38
602.774	4742.38
602.867	4595.38
602.96	4637.38
603.052	4608.38
603.145	4602.38
603.237	4584.38
603.33	4520.38
603.422	4650.38
603.515	4407.38
603.608	4670.38
603.7	4608.38
603.793	4523.38
603.885	4567.38
603.978	4553.38
604.07	4568.38
604.163	4556.38
604.255	4516.38
604.347	4507.38
604.44	4503.38
604.532	4452.38
604.625	4487.38
604.717	4422.38
604.81	4486.38
604.902	4431.38
604.994	4400.38
605.087	4484.38
605.179	4446.38
605.271	4641.38
605.364	4489.38
605.456	4482.38
605.548	4405.38
605.641	4492.38
605.733	4401.38
605.825	4383.38
605.918	4358.38
606.01	4647.38
606.102	4850.38
606.194	4455.38
606.287	4556.38
606.379	4245.38
606.471	4468.38
606.563	4463.38
606.655	4286.38
606.748	4397.38
606.84	4383.38
606.932	4416.38
607.024	4310.38
607.116	4378.38
607.208	4390.38
607.301	4311.38
607.393	4245.38
607.485	4385.38
607.577	4364.38
607.669	4460.38
607.761	4376.38
607.853	4553.38
607.945	4244.38
608.037	4226.38
608.129	4285.38
608.221	4269.38
608.313	4241.38
608.405	4379.38
608.497	4244.38
608.589	4175.38
608.681	4242.38
608.773	4324.38
608.865	4278.38
608.957	4252.38
609.049	4194.38
609.141	4450.38
609.233	4254.38
609.325	4179.38
609.417	4264.38
609.509	4331.38
609.601	4430.38
609.693	4261.38
609.784	4263.38
609.876	4197.38
609.968	4326.38
610.06	6650.38
610.152	4497.38
610.244	5088.38
610.335	4239.38
610.427	4255.38
610.519	4177.38
610.611	4131.38
610.702	4124.38
610.794	4152.38
610.886	4192.38
610.978	4069.38
611.069	4586.38
611.161	3979.38
611.253	4039.38
611.344	3966.38
611.436	3762.38
611.528	3865.38
611.62	3786.38
611.711	3697.38
611.803	3575.38
611.894	3617.38
611.986	3585.38
612.078	3501.38
612.169	3470.38
612.261	3476.38
612.352	3294.38
612.444	3262.38
612.536	3545.38
612.627	3320.38
612.719	3135.38
612.81	3164.38
612.902	3075.38
612.993	3092.38
613.085	3094.38
613.176	2858.38
613.268	2894.38
613.359	2860.38
613.451	2823.38
613.542	2788.38
613.634	2686.38
613.725	2825.38
613.816	2745.38
613.908	2625.38
613.999	2615.38
614.091	2443.38
614.182	2387.38
614.273	2436.38
614.365	2382.38
614.456	2196.38
614.547	2276.38
614.639	2158.38
614.73	2088.38
614.821	2160.38
614.913	2002.38
615.004	1911.38
615.095	1840.38
615.187	1897.38
