Data from 21g_HRC06701__69__313.txt Node

Date: Thu Apr 18 02:08:48 CDT 2024
User: Estudiantes 2
Spectrometer: HR+C0670
Trigger mode: 4
Integration Time (sec): 1.000000E0
Scans to average: 1
Electric dark correction enabled: true
Nonlinearity correction enabled: false
Boxcar width: 0
XAxis mode: Wavelengths
Number of Pixels in Spectrum: 2048
>>>>>Begin Spectral Data<<<<<
407.81	-135.06
407.921	-135.06
408.032	-135.06
408.143	-82.06
408.254	-148.06
408.365	-2.06
408.476	278.94
408.587	-18.06
408.699	-59.06
408.81	-27.06
408.921	-36.06
409.032	-43.06
409.143	40.94
409.254	57.94
409.365	88.94
409.476	-19.06
409.587	45.94
409.698	56.94
409.809	63.94
409.92	-6.06
410.031	-43.06
410.142	6.94
410.253	0.94
410.364	33.94
410.475	1996.94
410.585	9600.94
410.696	10317.94
410.807	10004.94
410.918	10146.94
411.029	10241.94
411.14	10236.94
411.251	10381.94
411.362	10477.94
411.472	10507.94
411.583	10214.94
411.694	10732.94
411.805	10716.94
411.916	10825.94
412.026	10712.94
412.137	10701.94
412.248	10616.94
412.359	10537.94
412.47	10236.94
412.58	10098.94
412.691	10327.94
412.802	10209.94
412.912	10299.94
413.023	10317.94
413.134	10274.94
413.245	10176.94
413.355	10383.94
413.466	10303.94
413.577	10233.94
413.687	10188.94
413.798	10028.94
413.909	10373.94
414.019	10381.94
414.13	10428.94
414.24	10408.94
414.351	10579.94
414.462	10866.94
414.572	10620.94
414.683	10615.94
414.793	10644.94
414.904	10802.94
415.014	10511.94
415.125	10386.94
415.235	10462.94
415.346	10740.94
415.456	10559.94
415.567	10478.94
415.677	10327.94
415.788	10418.94
415.898	10222.94
416.009	10324.94
416.119	10357.94
416.23	10464.94
416.34	10351.94
416.45	10483.94
416.561	11091.94
416.671	10507.94
416.782	10572.94
416.892	10702.94
417.002	10710.94
417.113	10933.94
417.223	10665.94
417.333	10784.94
417.444	10954.94
417.554	11123.94
417.664	11147.94
417.775	10976.94
417.885	11165.94
417.995	11217.94
418.106	11918.94
418.216	11515.94
418.326	11700.94
418.436	11909.94
418.547	12107.94
418.657	11990.94
418.767	12210.94
418.877	12202.94
418.987	12427.94
419.098	12290.94
419.208	12254.94
419.318	12332.94
419.428	12214.94
419.538	12017.94
419.648	12434.94
419.759	12228.94
419.869	12172.94
419.979	12243.94
420.089	12192.94
420.199	12175.94
420.309	12339.94
420.419	12248.94
420.529	12353.94
420.639	12622.94
420.749	12614.94
420.859	12479.94
420.969	12752.94
421.079	12731.94
421.189	12400.94
421.299	12362.94
421.409	12450.94
421.519	12691.94
421.629	12825.94
421.739	12851.94
421.849	13053.94
421.959	13165.94
422.069	13093.94
422.179	13213.94
422.289	13458.94
422.399	13694.94
422.509	13942.94
422.619	14553.94
422.729	14268.94
422.838	14070.94
422.948	14129.94
423.058	14371.94
423.168	14514.94
423.278	14553.94
423.388	14553.94
423.498	14553.94
423.607	14553.94
423.717	14553.94
423.827	14553.94
423.937	14553.94
424.046	14553.94
424.156	14553.94
424.266	14553.94
424.376	14553.94
424.485	14553.94
424.595	14553.94
424.705	14553.94
424.815	14553.94
424.924	14553.94
425.034	14553.94
425.144	14553.94
425.253	14553.94
425.363	14553.94
425.473	14553.94
425.582	14553.94
425.692	14553.94
425.801	14553.94
425.911	14553.94
426.021	14553.94
426.13	14553.94
426.24	14553.94
426.349	14553.94
426.459	14553.94
426.568	14553.94
426.678	14553.94
426.787	14553.94
426.897	14553.94
427.006	14553.94
427.116	14553.94
427.225	14553.94
427.335	14553.94
427.444	14553.94
427.554	14553.94
427.663	14553.94
427.773	14553.94
427.882	14553.94
427.992	14553.94
428.101	14553.94
428.21	14553.94
428.32	14553.94
428.429	14553.94
428.539	14553.94
428.648	14553.94
428.757	14553.94
428.867	14553.94
428.976	14553.94
429.085	14553.94
429.195	14553.94
429.304	14553.94
429.413	14553.94
429.523	14553.94
429.632	14553.94
429.741	14553.94
429.85	14553.94
429.96	14553.94
430.069	14553.94
430.178	14553.94
430.287	14553.94
430.397	14553.94
430.506	14553.94
430.615	14553.94
430.724	14553.94
430.833	14553.94
430.943	14553.94
431.052	14553.94
431.161	14553.94
431.27	14553.94
431.379	14553.94
431.488	14553.94
431.597	14553.94
431.706	14553.94
431.816	14553.94
431.925	14553.94
432.034	14553.94
432.143	14553.94
432.252	14553.94
432.361	14553.94
432.47	14553.94
432.579	14553.94
432.688	14553.94
432.797	14553.94
432.906	14553.94
433.015	14553.94
433.124	14553.94
433.233	14553.94
433.342	14553.94
433.451	14553.94
433.56	14553.94
433.669	14553.94
433.778	14553.94
433.886	14553.94
433.995	14553.94
434.104	14553.94
434.213	14553.94
434.322	14553.94
434.431	14553.94
434.54	14553.94
434.649	14553.94
434.757	14553.94
434.866	14553.94
434.975	14553.94
435.084	14553.94
435.193	14553.94
435.301	14553.94
435.41	14553.94
435.519	14553.94
435.628	14553.94
435.737	14553.94
435.845	14553.94
435.954	14553.94
436.063	14553.94
436.171	14553.94
436.28	14553.94
436.389	14553.94
436.498	14553.94
436.606	14553.94
436.715	14553.94
436.823	14553.94
436.932	14553.94
437.041	14553.94
437.149	14553.94
437.258	14553.94
437.367	14553.94
437.475	14553.94
437.584	14553.94
437.692	14553.94
437.801	14553.94
437.91	14553.94
438.018	14553.94
438.127	14553.94
438.235	14553.94
438.344	14553.94
438.452	14553.94
438.561	14553.94
438.669	14553.94
438.778	14553.94
438.886	14553.94
438.995	14553.94
439.103	14553.94
439.212	14553.94
439.32	14553.94
439.428	14553.94
439.537	14553.94
439.645	14553.94
439.754	14553.94
439.862	14553.94
439.97	14553.94
440.079	14553.94
440.187	14553.94
440.295	14553.94
440.404	14553.94
440.512	14553.94
440.62	14553.94
440.729	14553.94
440.837	14553.94
440.945	14553.94
441.054	14553.94
441.162	14553.94
441.27	14553.94
441.378	14553.94
441.487	14553.94
441.595	14553.94
441.703	14553.94
441.811	14553.94
441.92	14553.94
442.028	14553.94
442.136	14553.94
442.244	14553.94
442.352	14553.94
442.461	14553.94
442.569	14553.94
442.677	14553.94
442.785	14553.94
442.893	14553.94
443.001	14553.94
443.109	14553.94
443.217	14553.94
443.325	14553.94
443.434	14553.94
443.542	14553.94
443.65	14553.94
443.758	14553.94
443.866	14553.94
443.974	14553.94
444.082	14553.94
444.19	14553.94
444.298	14553.94
444.406	14553.94
444.514	14553.94
444.622	14553.94
444.73	14553.94
444.838	14553.94
444.946	14553.94
445.054	14553.94
445.161	14553.94
445.269	14553.94
445.377	14553.94
445.485	14553.94
445.593	14553.94
445.701	14553.94
445.809	14553.94
445.917	14553.94
446.025	14553.94
446.132	14553.94
446.24	14553.94
446.348	14553.94
446.456	14553.94
446.564	14553.94
446.671	14553.94
446.779	14553.94
446.887	14553.94
446.995	14553.94
447.102	14553.94
447.21	14553.94
447.318	14553.94
447.426	14553.94
447.533	14553.94
447.641	14553.94
447.749	14553.94
447.856	14553.94
447.964	14553.94
448.072	14553.94
448.179	14553.94
448.287	14553.94
448.395	14553.94
448.502	14553.94
448.61	14553.94
448.718	14553.94
448.825	14553.94
448.933	14553.94
449.04	14553.94
449.148	14553.94
449.256	14553.94
449.363	14553.94
449.471	14553.94
449.578	14553.94
449.686	14553.94
449.793	14553.94
449.901	14553.94
450.008	14553.94
450.116	14553.94
450.223	14553.94
450.331	14553.94
450.438	14553.94
450.546	14553.94
450.653	14553.94
450.76	14553.94
450.868	14553.94
450.975	14553.94
451.083	14553.94
451.19	14553.94
451.297	14553.94
451.405	14553.94
451.512	14553.94
451.619	14553.94
451.727	14553.94
451.834	14553.94
451.941	14553.94
452.049	14553.94
452.156	14553.94
452.263	14553.94
452.371	14553.94
452.478	14553.94
452.585	14553.94
452.692	14553.94
452.8	14553.94
452.907	14553.94
453.014	14553.94
453.121	14553.94
453.229	14553.94
453.336	14553.94
453.443	14553.94
453.55	14553.94
453.657	14553.94
453.765	14553.94
453.872	14553.94
453.979	14553.94
454.086	14553.94
454.193	14553.94
454.3	14553.94
454.407	14553.94
454.514	14553.94
454.621	14553.94
454.729	14553.94
454.836	14553.94
454.943	14553.94
455.05	14553.94
455.157	14553.94
455.264	14553.94
455.371	14553.94
455.478	14553.94
455.585	14553.94
455.692	14553.94
455.799	14553.94
455.906	14553.94
456.013	14553.94
456.12	14553.94
456.227	14553.94
456.334	14553.94
456.44	14553.94
456.547	14553.94
456.654	14553.94
456.761	14553.94
456.868	14553.94
456.975	14553.94
457.082	14553.94
457.189	14553.94
457.296	14553.94
457.402	14553.94
457.509	14553.94
457.616	14553.94
457.723	14553.94
457.83	14553.94
457.936	14553.94
458.043	14553.94
458.15	14553.94
458.257	14553.94
458.363	14553.94
458.47	14553.94
458.577	14553.94
458.684	14553.94
458.79	14553.94
458.897	14553.94
459.004	14553.94
459.11	14553.94
459.217	14553.94
459.324	14553.94
459.43	14553.94
459.537	14553.94
459.644	14553.94
459.75	14553.94
459.857	14553.94
459.964	14553.94
460.07	14553.94
460.177	14553.94
460.283	14553.94
460.39	14553.94
460.496	14553.94
460.603	14553.94
460.71	14553.94
460.816	14553.94
460.923	14553.94
461.029	14553.94
461.136	14553.94
461.242	14553.94
461.349	14553.94
461.455	14553.94
461.562	14553.94
461.668	14553.94
461.774	14553.94
461.881	14553.94
461.987	14553.94
462.094	14553.94
462.2	14553.94
462.307	14553.94
462.413	14553.94
462.519	14553.94
462.626	14553.94
462.732	14553.94
462.838	14553.94
462.945	14553.94
463.051	14553.94
463.157	14553.94
463.264	14553.94
463.37	14553.94
463.476	14553.94
463.583	14553.94
463.689	14553.94
463.795	14553.94
463.901	14553.94
464.008	14553.94
464.114	14553.94
464.22	14553.94
464.326	14553.94
464.433	14553.94
464.539	14553.94
464.645	14553.94
464.751	14553.94
464.857	14553.94
464.963	14553.94
465.07	14553.94
465.176	14553.94
465.282	14553.94
465.388	14553.94
465.494	14553.94
465.6	14553.94
465.706	14553.94
465.812	14553.94
465.918	14553.94
466.024	14553.94
466.131	14553.94
466.237	14553.94
466.343	14553.94
466.449	14553.94
466.555	14553.94
466.661	14553.94
466.767	14553.94
466.873	14553.94
466.979	14553.94
467.085	14553.94
467.191	14553.94
467.296	14553.94
467.402	14553.94
467.508	14553.94
467.614	14553.94
467.72	14553.94
467.826	14553.94
467.932	14553.94
468.038	14553.94
468.144	14553.94
468.25	14553.94
468.355	14553.94
468.461	14553.94
468.567	14553.94
468.673	14553.94
468.779	14553.94
468.885	14553.94
468.99	14553.94
469.096	14553.94
469.202	14553.94
469.308	14553.94
469.413	14553.94
469.519	14553.94
469.625	14553.94
469.731	14553.94
469.836	14553.94
469.942	14553.94
470.048	14553.94
470.153	14553.94
470.259	14553.94
470.365	14553.94
470.47	14553.94
470.576	14553.94
470.682	14553.94
470.787	14553.94
470.893	14553.94
470.999	14553.94
471.104	14553.94
471.21	14553.94
471.315	14553.94
471.421	14553.94
471.527	14553.94
471.632	14553.94
471.738	14553.94
471.843	14553.94
471.949	14553.94
472.054	14553.94
472.16	14553.94
472.265	14553.94
472.371	14553.94
472.476	14553.94
472.582	14553.94
472.687	14553.94
472.793	14553.94
472.898	14553.94
473.003	14553.94
473.109	14553.94
473.214	14553.94
473.32	14553.94
473.425	14553.94
473.53	14553.94
473.636	14553.94
473.741	14553.94
473.847	14553.94
473.952	14553.94
474.057	14553.94
474.163	14553.94
474.268	14553.94
474.373	14553.94
474.478	14553.94
474.584	14553.94
474.689	14553.94
474.794	14553.94
474.9	14553.94
475.005	14553.94
475.11	14553.94
475.215	14553.94
475.321	14553.94
475.426	14553.94
475.531	14553.94
475.636	14553.94
475.741	14553.94
475.846	14553.94
475.952	14553.94
476.057	14553.94
476.162	14553.94
476.267	14553.94
476.372	14553.94
476.477	14553.94
476.582	14553.94
476.687	14553.94
476.793	14553.94
476.898	14553.94
477.003	14553.94
477.108	14553.94
477.213	14553.94
477.318	14553.94
477.423	14553.94
477.528	14553.94
477.633	14553.94
477.738	14553.94
477.843	14553.94
477.948	14553.94
478.053	14553.94
478.158	14553.94
478.263	14553.94
478.368	14553.94
478.473	14553.94
478.578	14553.94
478.682	14553.94
478.787	14553.94
478.892	14553.94
478.997	14553.94
479.102	14553.94
479.207	14553.94
479.312	14553.94
479.417	14553.94
479.521	14553.94
479.626	14553.94
479.731	14553.94
479.836	14553.94
479.941	14553.94
480.045	14553.94
480.15	14553.94
480.255	14553.94
480.36	14553.94
480.465	14553.94
480.569	14553.94
480.674	14553.94
480.779	14553.94
480.883	14553.94
480.988	14553.94
481.093	14553.94
481.197	14553.94
481.302	14553.94
481.407	14553.94
481.511	14553.94
481.616	14553.94
481.721	14553.94
481.825	14553.94
481.93	14553.94
482.035	14553.94
482.139	14553.94
482.244	14553.94
482.348	14553.94
482.453	14553.94
482.557	14553.94
482.662	14553.94
482.767	14553.94
482.871	14553.94
482.976	14553.94
483.08	14553.94
483.185	14553.94
483.289	14553.94
483.394	14553.94
483.498	14553.94
483.603	14553.94
483.707	14553.94
483.811	14553.94
483.916	14553.94
484.02	14553.94
484.125	14553.94
484.229	14553.94
484.333	14553.94
484.438	14553.94
484.542	14553.94
484.647	14553.94
484.751	14553.94
484.855	14553.94
484.96	14553.94
485.064	14553.94
485.168	14553.94
485.273	14553.94
485.377	14553.94
485.481	14553.94
485.585	14553.94
485.69	14553.94
485.794	14553.94
485.898	14553.94
486.002	14553.94
486.107	14553.94
486.211	14553.94
486.315	14553.94
486.419	14553.94
486.524	14553.94
486.628	14553.94
486.732	14553.94
486.836	14553.94
486.94	14553.94
487.044	14553.94
487.148	14553.94
487.253	14553.94
487.357	14553.94
487.461	14553.94
487.565	14553.94
487.669	14553.94
487.773	14553.94
487.877	14553.94
487.981	14553.94
488.085	14553.94
488.189	14553.94
488.293	14553.94
488.397	14553.94
488.501	14553.94
488.605	14553.94
488.709	14553.94
488.813	14553.94
488.917	14553.94
489.021	14553.94
489.125	14553.94
489.229	14553.94
489.333	14553.94
489.437	14553.94
489.541	14553.94
489.645	14553.94
489.749	14553.94
489.853	14553.94
489.956	14553.94
490.06	14553.94
490.164	14553.94
490.268	14553.94
490.372	14553.94
490.476	14553.94
490.579	14553.94
490.683	14553.94
490.787	14553.94
490.891	14553.94
490.995	14553.94
491.098	14553.94
491.202	14553.94
491.306	14553.94
491.41	14553.94
491.513	14553.94
491.617	14553.94
491.721	14553.94
491.824	14553.94
491.928	14553.94
492.032	14553.94
492.136	14553.94
492.239	14553.94
492.343	14553.94
492.446	14553.94
492.55	14553.94
492.654	14553.94
492.757	14553.94
492.861	14553.94
492.965	14553.94
493.068	14553.94
493.172	14553.94
493.275	14553.94
493.379	14553.94
493.482	14553.94
493.586	14553.94
493.689	14553.94
493.793	14553.94
493.896	14553.94
494	14553.94
494.103	14553.94
494.207	14553.94
494.31	14553.94
494.414	14553.94
494.517	14553.94
494.621	14553.94
494.724	14553.94
494.828	14553.94
494.931	14553.94
495.034	14553.94
495.138	14553.94
495.241	14553.94
495.345	14553.94
495.448	14553.94
495.551	14553.94
495.655	14553.94
495.758	14553.94
495.861	14553.94
495.965	14553.94
496.068	14553.94
496.171	14553.94
496.274	14553.94
496.378	14553.94
496.481	14553.94
496.584	14553.94
496.687	14553.94
496.791	14553.94
496.894	14553.94
496.997	14553.94
497.1	14553.94
497.204	14553.94
497.307	14553.94
497.41	14553.94
497.513	14553.94
497.616	14553.94
497.719	14553.94
497.823	14553.94
497.926	14553.94
498.029	14553.94
498.132	14553.94
498.235	14553.94
498.338	14553.94
498.441	14553.94
498.544	14553.94
498.647	14553.94
498.75	14553.94
498.853	14553.94
498.956	14553.94
499.059	14553.94
499.163	14553.94
499.266	14553.94
499.369	14553.94
499.471	14553.94
499.574	14553.94
499.677	14553.94
499.78	14553.94
499.883	14553.94
499.986	14553.94
500.089	14553.94
500.192	14553.94
500.295	14553.94
500.398	14553.94
500.501	14553.94
500.604	14553.94
500.707	14553.94
500.809	14553.94
500.912	14553.94
501.015	14553.94
501.118	14553.94
501.221	14553.94
501.324	14553.94
501.426	14553.94
501.529	14553.94
501.632	14553.94
501.735	14553.94
501.837	14553.94
501.94	14553.94
502.043	14553.94
502.146	14553.94
502.248	14553.94
502.351	14553.94
502.454	14553.94
502.557	14553.94
502.659	14553.94
502.762	14553.94
502.865	14553.94
502.967	14553.94
503.07	14553.94
503.173	14553.94
503.275	14553.94
503.378	14553.94
503.48	14553.94
503.583	14553.94
503.686	14553.94
503.788	14553.94
503.891	14553.94
503.993	14553.94
504.096	14553.94
504.198	14553.94
504.301	14553.94
504.403	14553.94
504.506	14553.94
504.608	14553.94
504.711	14553.94
504.813	14553.94
504.916	14553.94
505.018	14553.94
505.121	14553.94
505.223	14553.94
505.326	14553.94
505.428	14553.94
505.531	14553.94
505.633	14553.94
505.735	14553.94
505.838	14553.94
505.94	14553.94
506.042	14553.94
506.145	14553.94
506.247	14553.94
506.35	14553.94
506.452	14553.94
506.554	14553.94
506.656	14553.94
506.759	14553.94
506.861	14553.94
506.963	14553.94
507.066	14553.94
507.168	14553.94
507.27	14553.94
507.372	14553.94
507.475	14553.94
507.577	14553.94
507.679	14553.94
507.781	14553.94
507.883	14553.94
507.986	14553.94
508.088	14553.94
508.19	14553.94
508.292	14553.94
508.394	14553.94
508.496	14553.94
508.598	14553.94
508.701	14553.94
508.803	14553.94
508.905	14553.94
509.007	14553.94
509.109	14553.94
509.211	14553.94
509.313	14553.94
509.415	14553.94
509.517	14553.94
509.619	14553.94
509.721	14553.94
509.823	14553.94
509.925	14553.94
510.027	14553.94
510.129	14553.94
510.231	14553.94
510.333	14553.94
510.435	14553.94
510.537	14553.94
510.639	14553.94
510.741	14553.94
510.843	14553.94
510.945	14553.94
511.047	14553.94
511.148	14553.94
511.25	14553.94
511.352	14553.94
511.454	14553.94
511.556	14553.94
511.658	14553.94
511.76	14553.94
511.861	14553.94
511.963	14553.94
512.065	14553.94
512.167	14553.94
512.268	14553.94
512.37	14553.94
512.472	14553.94
512.574	14553.94
512.676	14553.94
512.777	14553.94
512.879	14553.94
512.981	14553.94
513.082	14553.94
513.184	14553.94
513.286	14553.94
513.387	14553.94
513.489	14553.94
513.591	14553.94
513.692	14553.94
513.794	14553.94
513.896	14553.94
513.997	14553.94
514.099	14553.94
514.2	14553.94
514.302	14553.94
514.404	14553.94
514.505	14553.94
514.607	14553.94
514.708	14553.94
514.81	14553.94
514.911	14553.94
515.013	14553.94
515.114	14553.94
515.216	14553.94
515.317	14553.94
515.419	14553.94
515.52	14553.94
515.622	14553.94
515.723	14553.94
515.825	14553.94
515.926	14553.94
516.027	14553.94
516.129	14553.94
516.23	14553.94
516.332	14553.94
516.433	14553.94
516.534	14553.94
516.636	14553.94
516.737	14553.94
516.838	14553.94
516.94	14553.94
517.041	14553.94
517.142	14553.94
517.244	14553.94
517.345	14553.94
517.446	14553.94
517.547	14553.94
517.649	14553.94
517.75	14553.94
517.851	14553.94
517.952	14553.94
518.054	14553.94
518.155	14553.94
518.256	14553.94
518.357	14553.94
518.458	14553.94
518.56	14553.94
518.661	14553.94
518.762	14553.94
518.863	14553.94
518.964	14553.94
519.065	14553.94
519.166	14553.94
519.268	14553.94
519.369	14553.94
519.47	14553.94
519.571	14553.94
519.672	14553.94
519.773	14553.94
519.874	14553.94
519.975	14553.94
520.076	14553.94
520.177	14553.94
520.278	14553.94
520.379	14553.94
520.48	14553.94
520.581	14553.94
520.682	14553.94
520.783	14553.94
520.884	14553.94
520.985	14553.94
521.086	14553.94
521.187	14553.94
521.288	14553.94
521.389	14553.94
521.489	14553.94
521.59	14553.94
521.691	14553.94
521.792	14553.94
521.893	14553.94
521.994	14553.94
522.095	14553.94
522.195	14553.94
522.296	14553.94
522.397	14553.94
522.498	14553.94
522.599	14553.94
522.699	14553.94
522.8	14553.94
522.901	14553.94
523.002	14553.94
523.102	14553.94
523.203	14553.94
523.304	14553.94
523.405	14553.94
523.505	14553.94
523.606	14553.94
523.707	14553.94
523.807	14553.94
523.908	14553.94
524.009	14553.94
524.109	14553.94
524.21	14553.94
524.31	14553.94
524.411	14553.94
524.512	14553.94
524.612	14553.94
524.713	14553.94
524.813	14553.94
524.914	14553.94
525.014	14553.94
525.115	14553.94
525.216	14553.94
525.316	14553.94
525.417	14553.94
525.517	14553.94
525.618	14553.94
525.718	14553.94
525.819	14553.94
525.919	14553.94
526.019	14553.94
526.12	14553.94
526.22	14553.94
526.321	14553.94
526.421	14553.94
526.522	14553.94
526.622	14553.94
526.722	14553.94
526.823	14553.94
526.923	14553.94
527.023	14553.94
527.124	14553.94
527.224	14553.94
527.324	14553.94
527.425	14553.94
527.525	14553.94
527.625	14553.94
527.726	14553.94
527.826	14553.94
527.926	14553.94
528.026	14553.94
528.127	14553.94
528.227	14553.94
528.327	14553.94
528.427	14553.94
528.528	14553.94
528.628	14553.94
528.728	14553.94
528.828	14553.94
528.928	14553.94
529.029	14553.94
529.129	14553.94
529.229	14553.94
529.329	14553.94
529.429	14553.94
529.529	14553.94
529.629	14553.94
529.729	14553.94
529.829	14553.94
529.93	14553.94
530.03	14553.94
530.13	14553.94
530.23	14553.94
530.33	14553.94
530.43	14553.94
530.53	14553.94
530.63	14553.94
530.73	14553.94
530.83	14553.94
530.93	14553.94
531.03	14553.94
531.13	14553.94
531.23	14553.94
531.33	14553.94
531.429	14553.94
531.529	14553.94
531.629	14553.94
531.729	14553.94
531.829	14553.94
531.929	14553.94
532.029	14553.94
532.129	14553.94
532.229	14553.94
532.328	14553.94
532.428	14553.94
532.528	14553.94
532.628	14553.94
532.728	14553.94
532.827	14553.94
532.927	14553.94
533.027	14553.94
533.127	14553.94
533.227	14553.94
533.326	14553.94
533.426	14553.94
533.526	14553.94
533.625	14553.94
533.725	14553.94
533.825	14553.94
533.924	14553.94
534.024	14553.94
534.124	14553.94
534.223	14553.94
534.323	14553.94
534.423	14553.94
534.522	14553.94
534.622	14553.94
534.722	14553.94
534.821	14553.94
534.921	14553.94
535.02	14553.94
535.12	14553.94
535.219	14553.94
535.319	14553.94
535.419	14553.94
535.518	14553.94
535.618	14553.94
535.717	14553.94
535.817	14553.94
535.916	14553.94
536.016	14553.94
536.115	14553.94
536.215	14553.94
536.314	14553.94
536.413	14553.94
536.513	14553.94
536.612	14553.94
536.712	14553.94
536.811	14553.94
536.91	14553.94
537.01	14553.94
537.109	14553.94
537.209	14553.94
537.308	14553.94
537.407	14553.94
537.507	14553.94
537.606	14553.94
537.705	14553.94
537.805	14553.94
537.904	14553.94
538.003	14553.94
538.102	14553.94
538.202	14553.94
538.301	14553.94
538.4	14553.94
538.499	14553.94
538.599	14553.94
538.698	14553.94
538.797	14553.94
538.896	14553.94
538.995	14553.94
539.095	14553.94
539.194	14553.94
539.293	14553.94
539.392	14553.94
539.491	14553.94
539.59	14553.94
539.689	14553.94
539.789	14553.94
539.888	14553.94
539.987	14553.94
540.086	14553.94
540.185	14553.94
540.284	14553.94
540.383	14553.94
540.482	14553.94
540.581	14553.94
540.68	14553.94
540.779	14553.94
540.878	14553.94
540.977	14553.94
541.076	14553.94
541.175	14553.94
541.274	14553.94
541.373	14553.94
541.472	14553.94
541.571	14553.94
541.67	14553.94
541.769	14553.94
541.868	14553.94
541.966	14553.94
542.065	14553.94
542.164	14553.94
542.263	14553.94
542.362	14553.94
542.461	14553.94
542.56	14553.94
542.658	14553.94
542.757	14553.94
542.856	14553.94
542.955	14553.94
543.054	14553.94
543.152	14553.94
543.251	14553.94
543.35	14553.94
543.449	14553.94
543.547	14553.94
543.646	14553.94
543.745	14553.94
543.843	14553.94
543.942	14553.94
544.041	14553.94
544.14	14553.94
544.238	14553.94
544.337	14553.94
544.436	14553.94
544.534	14553.94
544.633	14553.94
544.731	14553.94
544.83	14553.94
544.929	14553.94
545.027	14553.94
545.126	14553.94
545.224	14553.94
545.323	14553.94
545.421	14553.94
545.52	14553.94
545.619	14553.94
545.717	14553.94
545.816	14553.94
545.914	14553.94
546.013	14553.94
546.111	14553.94
546.209	14553.94
546.308	14553.94
546.406	14553.94
546.505	14553.94
546.603	14553.94
546.702	14553.94
546.8	14553.94
546.899	14553.94
546.997	14553.94
547.095	14553.94
547.194	14553.94
547.292	14553.94
547.39	14553.94
547.489	14553.94
547.587	14553.94
547.685	14553.94
547.784	14553.94
547.882	14553.94
547.98	14553.94
548.079	14553.94
548.177	14553.94
548.275	14553.94
548.373	14553.94
548.472	14553.94
548.57	14553.94
548.668	14553.94
548.766	14553.94
548.864	14553.94
548.963	14553.94
549.061	14553.94
549.159	14553.94
549.257	14553.94
549.355	14553.94
549.454	14553.94
549.552	14553.94
549.65	14553.94
549.748	14553.94
549.846	14553.94
549.944	14553.94
550.042	14553.94
550.14	14553.94
550.238	14553.94
550.336	14553.94
550.434	14553.94
550.532	14553.94
550.631	14553.94
550.729	14553.94
550.827	14553.94
550.925	14553.94
551.023	14553.94
551.121	14553.94
551.218	14553.94
551.316	14553.94
551.414	14553.94
551.512	14553.94
551.61	14553.94
551.708	14553.94
551.806	14553.94
551.904	14553.94
552.002	14553.94
552.1	14553.94
552.198	14553.94
552.296	14553.94
552.393	14553.94
552.491	14553.94
552.589	14553.94
552.687	14553.94
552.785	14553.94
552.882	14553.94
552.98	14553.94
553.078	14553.94
553.176	14553.94
553.274	14553.94
553.371	14553.94
553.469	14553.94
553.567	14553.94
553.665	14553.94
553.762	14553.94
553.86	14553.94
553.958	14553.94
554.055	14553.94
554.153	14553.94
554.251	14553.94
554.348	14553.94
554.446	14553.94
554.544	14553.94
554.641	14553.94
554.739	14553.94
554.837	14553.94
554.934	14553.94
555.032	14553.94
555.129	14553.94
555.227	14553.94
555.324	14553.94
555.422	14553.94
555.519	14553.94
555.617	14553.94
555.715	14553.94
555.812	14553.94
555.91	14553.94
556.007	14553.94
556.105	14553.94
556.202	14553.94
556.299	14553.94
556.397	14553.94
556.494	14553.94
556.592	14553.94
556.689	14553.94
556.787	14553.94
556.884	14553.94
556.981	14553.94
557.079	14553.94
557.176	14553.94
557.273	14553.94
557.371	14553.94
557.468	14553.94
557.566	14553.94
557.663	14553.94
557.76	14553.94
557.857	14553.94
557.955	14553.94
558.052	14553.94
558.149	14553.94
558.247	14553.94
558.344	14553.94
558.441	14553.94
558.538	14553.94
558.636	14553.94
558.733	14553.94
558.83	14553.94
558.927	14553.94
559.024	14553.94
559.122	14553.94
559.219	14553.94
559.316	14553.94
559.413	14553.94
559.51	14553.94
559.607	14553.94
559.704	14553.94
559.801	14553.94
559.899	14553.94
559.996	14553.94
560.093	14553.94
560.19	14553.94
560.287	14553.94
560.384	14553.94
560.481	14553.94
560.578	14553.94
560.675	14553.94
560.772	14553.94
560.869	14553.94
560.966	14553.94
561.063	14553.94
561.16	14553.94
561.257	14553.94
561.354	14553.94
561.451	14553.94
561.548	14553.94
561.645	14553.94
561.742	14553.94
561.838	14553.94
561.935	14553.94
562.032	14553.94
562.129	14553.94
562.226	14553.94
562.323	14553.94
562.42	14553.94
562.516	14553.94
562.613	14553.94
562.71	14553.94
562.807	14553.94
562.904	14553.94
563	14553.94
563.097	14553.94
563.194	14553.94
563.291	14553.94
563.387	14553.94
563.484	14553.94
563.581	14553.94
563.678	14553.94
563.774	14553.94
563.871	14553.94
563.968	14553.94
564.064	14553.94
564.161	14553.94
564.258	14553.94
564.354	14553.94
564.451	14553.94
564.548	14553.94
564.644	14553.94
564.741	14553.94
564.837	14553.94
564.934	14553.94
565.031	14553.94
565.127	14553.94
565.224	14553.94
565.32	14553.94
565.417	14553.94
565.513	14553.94
565.61	14553.94
565.706	14553.94
565.803	14553.94
565.899	14553.94
565.996	14553.94
566.092	14553.94
566.189	14553.94
566.285	14553.94
566.382	14553.94
566.478	14553.94
566.574	14553.94
566.671	14553.94
566.767	14553.94
566.864	14553.94
566.96	14553.94
567.056	14553.94
567.153	14553.94
567.249	14553.94
567.345	14553.94
567.442	14553.94
567.538	14553.94
567.634	14553.94
567.731	14553.94
567.827	14553.94
567.923	14553.94
568.019	14553.94
568.116	14553.94
568.212	14553.94
568.308	14553.94
568.404	14553.94
568.501	14553.94
568.597	14553.94
568.693	14553.94
568.789	14553.94
568.885	14553.94
568.982	14553.94
569.078	14553.94
569.174	14553.94
569.27	14553.94
569.366	14553.94
569.462	14553.94
569.558	14553.94
569.655	14553.94
569.751	14553.94
569.847	14553.94
569.943	14553.94
570.039	14553.94
570.135	14553.94
570.231	14553.94
570.327	14553.94
570.423	14553.94
570.519	14553.94
570.615	14553.94
570.711	14553.94
570.807	14553.94
570.903	14553.94
570.999	14553.94
571.095	14553.94
571.191	14553.94
571.287	14553.94
571.383	14553.94
571.479	14553.94
571.574	14553.94
571.67	14553.94
571.766	14553.94
571.862	14553.94
571.958	14553.94
572.054	14553.94
572.15	14553.94
572.246	14553.94
572.341	14553.94
572.437	14553.94
572.533	14553.94
572.629	14553.94
572.725	14553.94
572.82	14553.94
572.916	14553.94
573.012	14553.94
573.108	14553.94
573.203	14553.94
573.299	14553.94
573.395	14544.94
573.49	14460.94
573.586	14236.94
573.682	14350.94
573.778	14413.94
573.873	14342.94
573.969	14178.94
574.065	14176.94
574.16	14080.94
574.256	14182.94
574.351	14352.94
574.447	14146.94
574.543	14214.94
574.638	14205.94
574.734	14232.94
574.829	14234.94
574.925	13883.94
575.02	13669.94
575.116	13685.94
575.212	13500.94
575.307	13523.94
575.403	13354.94
575.498	13205.94
575.594	13343.94
575.689	13259.94
575.784	13073.94
575.88	13021.94
575.975	13050.94
576.071	12960.94
576.166	12856.94
576.262	12961.94
576.357	12816.94
576.452	13056.94
576.548	12699.94
576.643	12828.94
576.739	12776.94
576.834	12608.94
576.929	12688.94
577.025	12799.94
577.12	12312.94
577.215	12344.94
577.311	12380.94
577.406	12401.94
577.501	12326.94
577.597	12057.94
577.692	12125.94
577.787	12220.94
577.882	12077.94
577.978	11984.94
578.073	11791.94
578.168	11764.94
578.263	11717.94
578.358	11715.94
578.454	11514.94
578.549	11563.94
578.644	11401.94
578.739	11576.94
578.834	11399.94
578.929	11287.94
579.025	11383.94
579.12	11394.94
579.215	11380.94
579.31	11377.94
579.405	11036.94
579.5	11267.94
579.595	11170.94
579.69	10920.94
579.785	11009.94
579.88	10895.94
579.975	10903.94
580.07	10936.94
580.165	10719.94
580.26	10926.94
580.355	10808.94
580.45	10496.94
580.545	10443.94
580.64	10570.94
580.735	10716.94
580.83	10442.94
580.925	10343.94
581.02	10331.94
581.115	10200.94
581.21	10087.94
581.305	10432.94
581.4	10093.94
581.495	10260.94
581.589	10216.94
581.684	10199.94
581.779	10158.94
581.874	10119.94
581.969	10178.94
582.064	9964.94
582.158	9909.94
582.253	9937.94
582.348	9980.94
582.443	9830.94
582.537	9913.94
582.632	9965.94
582.727	9848.94
582.822	9721.94
582.916	9714.94
583.011	9691.94
583.106	9700.94
583.201	9586.94
583.295	9620.94
583.39	9490.94
583.485	9638.94
583.579	11192.94
583.674	9574.94
583.769	9739.94
583.863	9403.94
583.958	9374.94
584.052	9398.94
584.147	9283.94
584.242	9187.94
584.336	9412.94
584.431	9587.94
584.525	9298.94
584.62	9520.94
584.714	9368.94
584.809	9088.94
584.903	9151.94
584.998	9257.94
585.092	9048.94
585.187	9164.94
585.281	9121.94
585.376	9057.94
585.47	9100.94
585.565	9020.94
585.659	9026.94
585.754	8889.94
585.848	9000.94
585.942	9043.94
586.037	8801.94
586.131	11312.94
586.226	9043.94
586.32	8924.94
586.414	8782.94
586.509	8995.94
586.603	8777.94
586.697	8816.94
586.792	8810.94
586.886	8804.94
586.98	8847.94
587.075	8822.94
587.169	8645.94
587.263	8905.94
587.357	8471.94
587.452	8668.94
587.546	8785.94
587.64	8542.94
587.734	8726.94
587.829	8747.94
587.923	8654.94
588.017	8632.94
588.111	8662.94
588.205	8923.94
588.3	8803.94
588.394	8872.94
588.488	8944.94
588.582	9378.94
588.676	10302.94
588.77	14195.94
588.864	14553.94
588.958	14553.94
589.052	14553.94
589.147	13763.94
589.241	11278.94
589.335	11296.94
589.429	14553.94
589.523	14553.94
589.617	14553.94
589.711	13062.94
589.805	10541.94
589.899	9530.94
589.993	8888.94
590.087	8789.94
590.181	8711.94
590.275	8751.94
590.369	8560.94
590.462	8518.94
590.556	8529.94
590.65	8445.94
590.744	8503.94
590.838	8502.94
590.932	8479.94
591.026	8632.94
591.12	8819.94
591.214	8659.94
591.307	8697.94
591.401	8774.94
591.495	8852.94
591.589	8773.94
591.683	8899.94
591.777	9011.94
591.87	9390.94
591.964	9084.94
592.058	9213.94
592.152	9230.94
592.245	9402.94
592.339	9633.94
592.433	9693.94
592.527	9862.94
592.62	10027.94
592.714	10015.94
592.808	10259.94
592.901	10430.94
592.995	10288.94
593.089	10685.94
593.182	10476.94
593.276	10435.94
593.37	10449.94
593.463	10404.94
593.557	10475.94
593.65	10425.94
593.744	10482.94
593.837	10754.94
593.931	10733.94
594.025	14320.94
594.118	10984.94
594.212	10372.94
594.305	10235.94
594.399	10256.94
594.492	10265.94
594.586	9627.94
594.679	9526.94
594.773	9371.94
594.866	9200.94
594.96	9091.94
595.053	9011.94
595.146	8740.94
595.24	8631.94
595.333	8507.94
595.427	8380.94
595.52	8196.94
595.614	8332.94
595.707	8021.94
595.8	7873.94
595.894	7794.94
595.987	7632.94
596.08	7591.94
596.174	7794.94
596.267	7456.94
596.36	7448.94
596.454	7441.94
596.547	7312.94
596.64	7075.94
596.733	6917.94
596.827	7052.94
596.92	7011.94
597.013	6883.94
597.106	6910.94
597.2	6872.94
597.293	6650.94
597.386	7018.94
597.479	6805.94
597.572	6812.94
597.666	6668.94
597.759	6695.94
597.852	6726.94
597.945	6468.94
598.038	6590.94
598.131	6521.94
598.224	6511.94
598.317	6602.94
598.411	6542.94
598.504	6449.94
598.597	6607.94
598.69	6488.94
598.783	6332.94
598.876	6406.94
598.969	6435.94
599.062	6255.94
599.155	6498.94
599.248	6262.94
599.341	6405.94
599.434	6134.94
599.527	6414.94
599.62	6350.94
599.713	6215.94
599.806	6240.94
599.899	6514.94
599.991	6085.94
600.084	6413.94
600.177	6190.94
600.27	6132.94
600.363	6354.94
600.456	6093.94
600.549	6324.94
600.642	6023.94
600.734	6050.94
600.827	6124.94
600.92	6192.94
601.013	6024.94
601.106	6193.94
601.199	5960.94
601.291	5918.94
601.384	5992.94
601.477	6218.94
601.57	6069.94
601.662	5891.94
601.755	5846.94
601.848	5935.94
601.94	5875.94
602.033	6085.94
602.126	5845.94
602.219	5872.94
602.311	6121.94
602.404	5806.94
602.497	5866.94
602.589	5826.94
602.682	5936.94
602.774	5773.94
602.867	5870.94
602.96	5844.94
603.052	5760.94
603.145	5708.94
603.237	5800.94
603.33	5834.94
603.422	5902.94
603.515	5777.94
603.608	5687.94
603.7	5679.94
603.793	5697.94
603.885	5741.94
603.978	5685.94
604.07	5654.94
604.163	5711.94
604.255	5647.94
604.347	5537.94
604.44	5590.94
604.532	5659.94
604.625	5643.94
604.717	5674.94
604.81	5695.94
604.902	5474.94
604.994	5585.94
605.087	5580.94
605.179	5646.94
605.271	5615.94
605.364	5541.94
605.456	5629.94
605.548	5568.94
605.641	5540.94
605.733	5447.94
605.825	5456.94
605.918	5454.94
606.01	5673.94
606.102	5835.94
606.194	5543.94
606.287	5589.94
606.379	5415.94
606.471	5501.94
606.563	5566.94
606.655	5579.94
606.748	5542.94
606.84	5435.94
606.932	5474.94
607.024	5407.94
607.116	5504.94
607.208	5441.94
607.301	5447.94
607.393	5362.94
607.485	5317.94
607.577	5488.94
607.669	5426.94
607.761	5505.94
607.853	5682.94
607.945	5285.94
608.037	5320.94
608.129	5393.94
608.221	5335.94
608.313	5351.94
608.405	5374.94
608.497	5390.94
608.589	5246.94
608.681	5349.94
608.773	5297.94
608.865	5373.94
608.957	5311.94
609.049	5316.94
609.141	5477.94
609.233	5413.94
609.325	5340.94
609.417	5346.94
609.509	5403.94
609.601	5362.94
609.693	5473.94
609.784	5300.94
609.876	5257.94
609.968	5368.94
610.06	8043.94
610.152	5409.94
610.244	5489.94
610.335	5153.94
610.427	5206.94
610.519	5180.94
610.611	5059.94
610.702	5195.94
610.794	5075.94
610.886	5101.94
610.978	5030.94
611.069	5581.94
611.161	4872.94
611.253	4904.94
611.344	4800.94
611.436	4608.94
611.528	4751.94
611.62	4703.94
611.711	4539.94
611.803	4473.94
611.894	4404.94
611.986	4411.94
612.078	4388.94
612.169	4255.94
612.261	4257.94
612.352	4123.94
612.444	4079.94
612.536	4215.94
612.627	3967.94
612.719	3836.94
612.81	3794.94
612.902	3679.94
612.993	3743.94
613.085	3773.94
613.176	3493.94
613.268	3615.94
613.359	3492.94
613.451	3472.94
613.542	3474.94
613.634	3336.94
613.725	3350.94
613.816	3419.94
613.908	3152.94
613.999	3086.94
614.091	2963.94
614.182	2897.94
614.273	3009.94
614.365	2836.94
614.456	2690.94
614.547	2753.94
614.639	2624.94
614.73	2510.94
614.821	2633.94
614.913	2417.94
615.004	2368.94
615.095	2273.94
615.187	2213.94
