Data from 21g_HRC06701__79__323.txt Node

Date: Thu Apr 18 02:08:58 CDT 2024
User: Estudiantes 2
Spectrometer: HR+C0670
Trigger mode: 4
Integration Time (sec): 1.000000E0
Scans to average: 1
Electric dark correction enabled: true
Nonlinearity correction enabled: false
Boxcar width: 0
XAxis mode: Wavelengths
Number of Pixels in Spectrum: 2048
>>>>>Begin Spectral Data<<<<<
407.81	-161.12
407.921	-161.12
408.032	-161.12
408.143	-84.12
408.254	-139.12
408.365	25.88
408.476	242.88
408.587	-29.12
408.699	-20.12
408.81	-34.12
408.921	-33.12
409.032	-18.12
409.143	44.88
409.254	76.88
409.365	71.88
409.476	-33.12
409.587	37.88
409.698	51.88
409.809	78.88
409.92	-16.12
410.031	-56.12
410.142	48.88
410.253	18.88
410.364	85.88
410.475	1188.88
410.585	5950.88
410.696	6404.88
410.807	6167.88
410.918	6326.88
411.029	6496.88
411.14	6442.88
411.251	6397.88
411.362	6478.88
411.472	6623.88
411.583	6461.88
411.694	6730.88
411.805	6655.88
411.916	6658.88
412.026	6729.88
412.137	6688.88
412.248	6531.88
412.359	6604.88
412.47	6261.88
412.58	6278.88
412.691	6501.88
412.802	6350.88
412.912	6467.88
413.023	6432.88
413.134	6449.88
413.245	6503.88
413.355	6390.88
413.466	6327.88
413.577	6346.88
413.687	6462.88
413.798	6168.88
413.909	6553.88
414.019	6559.88
414.13	6581.88
414.24	6523.88
414.351	6586.88
414.462	6940.88
414.572	6598.88
414.683	6678.88
414.793	6603.88
414.904	6885.88
415.014	6620.88
415.125	6449.88
415.235	6573.88
415.346	6717.88
415.456	6715.88
415.567	6544.88
415.677	6520.88
415.788	6524.88
415.898	6452.88
416.009	6464.88
416.119	6672.88
416.23	6442.88
416.34	6482.88
416.45	6729.88
416.561	7435.88
416.671	6628.88
416.782	6628.88
416.892	6671.88
417.002	6637.88
417.113	6891.88
417.223	6732.88
417.333	6754.88
417.444	6718.88
417.554	6983.88
417.664	6983.88
417.775	6842.88
417.885	7095.88
417.995	6932.88
418.106	7464.88
418.216	7187.88
418.326	7441.88
418.436	7591.88
418.547	7674.88
418.657	7588.88
418.767	7642.88
418.877	7667.88
418.987	7734.88
419.098	7641.88
419.208	7804.88
419.318	7893.88
419.428	7798.88
419.538	7598.88
419.648	7804.88
419.759	7697.88
419.869	7567.88
419.979	7673.88
420.089	7644.88
420.199	7628.88
420.309	7799.88
420.419	7771.88
420.529	7696.88
420.639	8168.88
420.749	7895.88
420.859	7911.88
420.969	8038.88
421.079	8159.88
421.189	7864.88
421.299	7820.88
421.409	7947.88
421.519	8182.88
421.629	8111.88
421.739	8043.88
421.849	8170.88
421.959	8318.88
422.069	8239.88
422.179	8382.88
422.289	8531.88
422.399	8598.88
422.509	8785.88
422.619	11131.88
422.729	8974.88
422.838	8978.88
422.948	9109.88
423.058	9129.88
423.168	9168.88
423.278	9262.88
423.388	9410.88
423.498	9603.88
423.607	9563.88
423.717	9849.88
423.827	9893.88
423.937	9851.88
424.046	9797.88
424.156	9966.88
424.266	9812.88
424.376	10033.88
424.485	9926.88
424.595	9910.88
424.705	9932.88
424.815	9989.88
424.924	10468.88
425.034	9965.88
425.144	9893.88
425.253	9853.88
425.363	10163.88
425.473	9999.88
425.582	9800.88
425.692	9980.88
425.801	9936.88
425.911	10180.88
426.021	10065.88
426.13	10382.88
426.24	10358.88
426.349	10162.88
426.459	10398.88
426.568	10243.88
426.678	10300.88
426.787	10416.88
426.897	10192.88
427.006	10461.88
427.116	10602.88
427.225	10463.88
427.335	10708.88
427.444	10593.88
427.554	10621.88
427.663	10769.88
427.773	10785.88
427.882	10965.88
427.992	10708.88
428.101	10963.88
428.21	10908.88
428.32	11035.88
428.429	11035.88
428.539	11313.88
428.648	11154.88
428.757	11089.88
428.867	11217.88
428.976	11566.88
429.085	11347.88
429.195	11405.88
429.304	11394.88
429.413	11471.88
429.523	11570.88
429.632	11475.88
429.741	11597.88
429.85	11580.88
429.96	12016.88
430.069	11791.88
430.178	11806.88
430.287	12257.88
430.397	12029.88
430.506	11900.88
430.615	12152.88
430.724	12212.88
430.833	11998.88
430.943	12286.88
431.052	12432.88
431.161	12462.88
431.27	12618.88
431.379	12852.88
431.488	13439.88
431.597	13163.88
431.706	13425.88
431.816	13399.88
431.925	13193.88
432.034	13183.88
432.143	13100.88
432.252	13126.88
432.361	13207.88
432.47	13057.88
432.579	13114.88
432.688	13007.88
432.797	13226.88
432.906	12999.88
433.015	13218.88
433.124	13331.88
433.233	13353.88
433.342	13349.88
433.451	13434.88
433.56	13588.88
433.669	13595.88
433.778	13486.88
433.886	13822.88
433.995	13739.88
434.104	14178.88
434.213	14403.88
434.322	14534.88
434.431	14568.88
434.54	14568.88
434.649	14568.88
434.757	14568.88
434.866	14568.88
434.975	14568.88
435.084	14568.88
435.193	14526.88
435.301	14271.88
435.41	14072.88
435.519	13966.88
435.628	13083.88
435.737	13196.88
435.845	12883.88
435.954	12738.88
436.063	12876.88
436.171	12921.88
436.28	12753.88
436.389	13166.88
436.498	12695.88
436.606	12818.88
436.715	12875.88
436.823	12411.88
436.932	12134.88
437.041	12212.88
437.149	12215.88
437.258	11900.88
437.367	11594.88
437.475	11779.88
437.584	12085.88
437.692	11697.88
437.801	13542.88
437.91	11722.88
438.018	11646.88
438.127	11663.88
438.235	11769.88
438.344	11668.88
438.452	11558.88
438.561	11460.88
438.669	11579.88
438.778	11408.88
438.886	11478.88
438.995	11412.88
439.103	11617.88
439.212	11738.88
439.32	11763.88
439.428	11603.88
439.537	11782.88
439.645	11901.88
439.754	12002.88
439.862	11712.88
439.97	11947.88
440.079	12118.88
440.187	11810.88
440.295	12147.88
440.404	12130.88
440.512	12241.88
440.62	12394.88
440.729	12384.88
440.837	12477.88
440.945	13540.88
441.054	13226.88
441.162	13164.88
441.27	13638.88
441.378	13922.88
441.487	13843.88
441.595	14518.88
441.703	13969.88
441.811	13518.88
441.92	13480.88
442.028	13090.88
442.136	13277.88
442.244	13136.88
442.352	13186.88
442.461	12994.88
442.569	13018.88
442.677	13024.88
442.785	13097.88
442.893	12911.88
443.001	12884.88
443.109	12952.88
443.217	13142.88
443.325	13359.88
443.434	14022.88
443.542	13760.88
443.65	13482.88
443.758	13931.88
443.866	13932.88
443.974	14537.88
444.082	14342.88
444.19	14568.88
444.298	14568.88
444.406	14568.88
444.514	14568.88
444.622	14568.88
444.73	14568.88
444.838	14568.88
444.946	14568.88
445.054	14568.88
445.161	14568.88
445.269	14126.88
445.377	13807.88
445.485	13832.88
445.593	13603.88
445.701	13472.88
445.809	13260.88
445.917	13094.88
446.025	13051.88
446.132	13058.88
446.24	13226.88
446.348	12903.88
446.456	12875.88
446.564	12976.88
446.671	12885.88
446.779	12620.88
446.887	12771.88
446.995	12513.88
447.102	12699.88
447.21	12510.88
447.318	12538.88
447.426	12321.88
447.533	12698.88
447.641	13825.88
447.749	12412.88
447.856	12366.88
447.964	12439.88
448.072	12515.88
448.179	12259.88
448.287	12462.88
448.395	12560.88
448.502	12164.88
448.61	12414.88
448.718	12539.88
448.825	12527.88
448.933	12444.88
449.04	12575.88
449.148	12707.88
449.256	12572.88
449.363	12599.88
449.471	12746.88
449.578	13099.88
449.686	12923.88
449.793	13265.88
449.901	13063.88
450.008	13073.88
450.116	13366.88
450.223	13399.88
450.331	13632.88
450.438	13854.88
450.546	14033.88
450.653	14132.88
450.76	14324.88
450.868	14321.88
450.975	14467.88
451.083	14359.88
451.19	14493.88
451.297	14260.88
451.405	14357.88
451.512	14558.88
451.619	14568.88
451.727	14568.88
451.834	14566.88
451.941	14568.88
452.049	14568.88
452.156	14568.88
452.263	14568.88
452.371	14568.88
452.478	14568.88
452.585	14568.88
452.692	14568.88
452.8	14568.88
452.907	14568.88
453.014	14568.88
453.121	14568.88
453.229	14568.88
453.336	14568.88
453.443	14568.88
453.55	14568.88
453.657	14568.88
453.765	14568.88
453.872	14568.88
453.979	14568.88
454.086	14568.88
454.193	14568.88
454.3	14568.88
454.407	14568.88
454.514	14568.88
454.621	14568.88
454.729	14568.88
454.836	14568.88
454.943	14568.88
455.05	14568.88
455.157	14568.88
455.264	14568.88
455.371	14568.88
455.478	14568.88
455.585	14568.88
455.692	14568.88
455.799	14568.88
455.906	14568.88
456.013	14568.88
456.12	14568.88
456.227	14568.88
456.334	14568.88
456.44	14568.88
456.547	14568.88
456.654	14568.88
456.761	14568.88
456.868	14568.88
456.975	14568.88
457.082	14568.88
457.189	14568.88
457.296	14568.88
457.402	14568.88
457.509	14568.88
457.616	14568.88
457.723	14568.88
457.83	14568.88
457.936	14568.88
458.043	14568.88
458.15	14568.88
458.257	14568.88
458.363	14568.88
458.47	14568.88
458.577	14568.88
458.684	14568.88
458.79	14568.88
458.897	14568.88
459.004	14568.88
459.11	14568.88
459.217	14568.88
459.324	14568.88
459.43	14568.88
459.537	14568.88
459.644	14568.88
459.75	14568.88
459.857	14568.88
459.964	14568.88
460.07	14568.88
460.177	14568.88
460.283	14568.88
460.39	14568.88
460.496	14568.88
460.603	14568.88
460.71	14568.88
460.816	14568.88
460.923	14568.88
461.029	14568.88
461.136	14568.88
461.242	14568.88
461.349	14568.88
461.455	14568.88
461.562	14568.88
461.668	14568.88
461.774	14568.88
461.881	14568.88
461.987	14568.88
462.094	14568.88
462.2	14568.88
462.307	14568.88
462.413	14568.88
462.519	14568.88
462.626	14568.88
462.732	14568.88
462.838	14568.88
462.945	14568.88
463.051	14568.88
463.157	14568.88
463.264	14568.88
463.37	14568.88
463.476	14568.88
463.583	14568.88
463.689	14568.88
463.795	14568.88
463.901	14568.88
464.008	14568.88
464.114	14568.88
464.22	14568.88
464.326	14568.88
464.433	14568.88
464.539	14568.88
464.645	14568.88
464.751	14568.88
464.857	14568.88
464.963	14568.88
465.07	14568.88
465.176	14568.88
465.282	14568.88
465.388	14568.88
465.494	14568.88
465.6	14568.88
465.706	14568.88
465.812	14568.88
465.918	14568.88
466.024	14568.88
466.131	14568.88
466.237	14568.88
466.343	14568.88
466.449	14568.88
466.555	14568.88
466.661	14568.88
466.767	14568.88
466.873	14568.88
466.979	14568.88
467.085	14568.88
467.191	14568.88
467.296	14568.88
467.402	14568.88
467.508	14568.88
467.614	14568.88
467.72	14568.88
467.826	14568.88
467.932	14568.88
468.038	14568.88
468.144	14568.88
468.25	14568.88
468.355	14568.88
468.461	14568.88
468.567	14568.88
468.673	14568.88
468.779	14568.88
468.885	14568.88
468.99	14568.88
469.096	14568.88
469.202	14568.88
469.308	14568.88
469.413	14568.88
469.519	14568.88
469.625	14568.88
469.731	14568.88
469.836	14568.88
469.942	14568.88
470.048	14568.88
470.153	14568.88
470.259	14568.88
470.365	14568.88
470.47	14568.88
470.576	14568.88
470.682	14568.88
470.787	14568.88
470.893	14568.88
470.999	14568.88
471.104	14568.88
471.21	14568.88
471.315	14568.88
471.421	14568.88
471.527	14568.88
471.632	14568.88
471.738	14568.88
471.843	14568.88
471.949	14538.88
472.054	14568.88
472.16	14472.88
472.265	14381.88
472.371	14217.88
472.476	14032.88
472.582	14116.88
472.687	13814.88
472.793	13855.88
472.898	13746.88
473.003	13847.88
473.109	13541.88
473.214	13571.88
473.32	13740.88
473.425	13478.88
473.53	13540.88
473.636	13526.88
473.741	13382.88
473.847	13352.88
473.952	13411.88
474.057	13352.88
474.163	13336.88
474.268	13485.88
474.373	13461.88
474.478	13309.88
474.584	13280.88
474.689	13420.88
474.794	13467.88
474.9	13728.88
475.005	13417.88
475.11	13805.88
475.215	13491.88
475.321	13651.88
475.426	13644.88
475.531	13601.88
475.636	13599.88
475.741	13418.88
475.846	14068.88
475.952	14103.88
476.057	13832.88
476.162	13933.88
476.267	13883.88
476.372	14310.88
476.477	13992.88
476.582	14200.88
476.687	14146.88
476.793	14165.88
476.898	14269.88
477.003	14431.88
477.108	14568.88
477.213	14568.88
477.318	14568.88
477.423	14568.88
477.528	14568.88
477.633	14568.88
477.738	14568.88
477.843	14568.88
477.948	14568.88
478.053	14568.88
478.158	14568.88
478.263	14568.88
478.368	14568.88
478.473	14568.88
478.578	14568.88
478.682	14568.88
478.787	14568.88
478.892	14568.88
478.997	14568.88
479.102	14568.88
479.207	14568.88
479.312	14568.88
479.417	14568.88
479.521	14568.88
479.626	14568.88
479.731	14568.88
479.836	14568.88
479.941	14568.88
480.045	14568.88
480.15	14568.88
480.255	14568.88
480.36	14568.88
480.465	14568.88
480.569	14568.88
480.674	14568.88
480.779	14568.88
480.883	14568.88
480.988	14568.88
481.093	14568.88
481.197	14568.88
481.302	14568.88
481.407	14568.88
481.511	14568.88
481.616	14568.88
481.721	14568.88
481.825	14568.88
481.93	14568.88
482.035	14568.88
482.139	14568.88
482.244	14568.88
482.348	14568.88
482.453	14568.88
482.557	14568.88
482.662	14568.88
482.767	14568.88
482.871	14568.88
482.976	14568.88
483.08	14568.88
483.185	14568.88
483.289	14568.88
483.394	14568.88
483.498	14568.88
483.603	14568.88
483.707	14568.88
483.811	14568.88
483.916	14568.88
484.02	14568.88
484.125	14568.88
484.229	14568.88
484.333	14568.88
484.438	14568.88
484.542	14568.88
484.647	14568.88
484.751	14568.88
484.855	14568.88
484.96	14568.88
485.064	14568.88
485.168	14568.88
485.273	14568.88
485.377	14568.88
485.481	14568.88
485.585	14568.88
485.69	14568.88
485.794	14568.88
485.898	14568.88
486.002	14568.88
486.107	14568.88
486.211	14568.88
486.315	14568.88
486.419	14568.88
486.524	14568.88
486.628	14568.88
486.732	14568.88
486.836	14568.88
486.94	14568.88
487.044	14568.88
487.148	14568.88
487.253	14568.88
487.357	14568.88
487.461	14568.88
487.565	14568.88
487.669	14568.88
487.773	14568.88
487.877	14568.88
487.981	14568.88
488.085	14568.88
488.189	14568.88
488.293	14568.88
488.397	14568.88
488.501	14568.88
488.605	14568.88
488.709	14568.88
488.813	14568.88
488.917	14568.88
489.021	14568.88
489.125	14568.88
489.229	14568.88
489.333	14568.88
489.437	14568.88
489.541	14568.88
489.645	14568.88
489.749	14568.88
489.853	14568.88
489.956	14568.88
490.06	14568.88
490.164	14568.88
490.268	14568.88
490.372	14568.88
490.476	14568.88
490.579	14568.88
490.683	14568.88
490.787	14568.88
490.891	14568.88
490.995	14568.88
491.098	14568.88
491.202	14568.88
491.306	14568.88
491.41	14568.88
491.513	14568.88
491.617	14568.88
491.721	14568.88
491.824	14568.88
491.928	14568.88
492.032	14568.88
492.136	14568.88
492.239	14568.88
492.343	14568.88
492.446	14568.88
492.55	14568.88
492.654	14568.88
492.757	14568.88
492.861	14568.88
492.965	14568.88
493.068	14568.88
493.172	14568.88
493.275	14568.88
493.379	14568.88
493.482	14568.88
493.586	14568.88
493.689	14568.88
493.793	14568.88
493.896	14568.88
494	14568.88
494.103	14568.88
494.207	14568.88
494.31	14568.88
494.414	14568.88
494.517	14568.88
494.621	14568.88
494.724	14568.88
494.828	14568.88
494.931	14568.88
495.034	14568.88
495.138	14568.88
495.241	14568.88
495.345	14568.88
495.448	14568.88
495.551	14568.88
495.655	14568.88
495.758	14568.88
495.861	14568.88
495.965	14568.88
496.068	14568.88
496.171	14568.88
496.274	14568.88
496.378	14568.88
496.481	14568.88
496.584	14568.88
496.687	14568.88
496.791	14568.88
496.894	14568.88
496.997	14568.88
497.1	14568.88
497.204	14568.88
497.307	14568.88
497.41	14568.88
497.513	14568.88
497.616	14568.88
497.719	14568.88
497.823	14568.88
497.926	14568.88
498.029	14568.88
498.132	14568.88
498.235	14568.88
498.338	14568.88
498.441	14568.88
498.544	14568.88
498.647	14568.88
498.75	14568.88
498.853	14568.88
498.956	14568.88
499.059	14568.88
499.163	14568.88
499.266	14568.88
499.369	14568.88
499.471	14568.88
499.574	14568.88
499.677	14568.88
499.78	14568.88
499.883	14568.88
499.986	14568.88
500.089	14568.88
500.192	14568.88
500.295	14568.88
500.398	14568.88
500.501	14568.88
500.604	14568.88
500.707	14568.88
500.809	14568.88
500.912	14568.88
501.015	14568.88
501.118	14568.88
501.221	14568.88
501.324	14568.88
501.426	14568.88
501.529	14568.88
501.632	14568.88
501.735	14568.88
501.837	14568.88
501.94	14568.88
502.043	14568.88
502.146	14568.88
502.248	14568.88
502.351	14568.88
502.454	14568.88
502.557	14568.88
502.659	14568.88
502.762	14568.88
502.865	14568.88
502.967	14568.88
503.07	14568.88
503.173	14568.88
503.275	14568.88
503.378	14568.88
503.48	14568.88
503.583	14568.88
503.686	14568.88
503.788	14568.88
503.891	14568.88
503.993	14568.88
504.096	14568.88
504.198	14568.88
504.301	14568.88
504.403	14568.88
504.506	14568.88
504.608	14568.88
504.711	14568.88
504.813	14568.88
504.916	14568.88
505.018	14568.88
505.121	14568.88
505.223	14568.88
505.326	14568.88
505.428	14568.88
505.531	14568.88
505.633	14568.88
505.735	14568.88
505.838	14568.88
505.94	14568.88
506.042	14568.88
506.145	14568.88
506.247	14568.88
506.35	14568.88
506.452	14568.88
506.554	14568.88
506.656	14568.88
506.759	14568.88
506.861	14568.88
506.963	14568.88
507.066	14568.88
507.168	14568.88
507.27	14568.88
507.372	14568.88
507.475	14568.88
507.577	14568.88
507.679	14568.88
507.781	14568.88
507.883	14568.88
507.986	14568.88
508.088	14568.88
508.19	14568.88
508.292	14568.88
508.394	14568.88
508.496	14568.88
508.598	14568.88
508.701	14568.88
508.803	14461.88
508.905	14399.88
509.007	14424.88
509.109	14351.88
509.211	14284.88
509.313	14266.88
509.415	14201.88
509.517	14351.88
509.619	14268.88
509.721	14277.88
509.823	14127.88
509.925	14370.88
510.027	14117.88
510.129	14096.88
510.231	14293.88
510.333	14083.88
510.435	14008.88
510.537	14213.88
510.639	14253.88
510.741	14191.88
510.843	14054.88
510.945	14067.88
511.047	14067.88
511.148	14211.88
511.25	14148.88
511.352	14138.88
511.454	13956.88
511.556	14265.88
511.658	14061.88
511.76	14168.88
511.861	14373.88
511.963	14053.88
512.065	14113.88
512.167	13926.88
512.268	14279.88
512.37	14286.88
512.472	14237.88
512.574	14179.88
512.676	14365.88
512.777	14165.88
512.879	14318.88
512.981	14409.88
513.082	14408.88
513.184	14372.88
513.286	14568.88
513.387	14447.88
513.489	14568.88
513.591	14568.88
513.692	14568.88
513.794	14568.88
513.896	14568.88
513.997	14568.88
514.099	14568.88
514.2	14568.88
514.302	14568.88
514.404	14568.88
514.505	14568.88
514.607	14568.88
514.708	14568.88
514.81	14568.88
514.911	14568.88
515.013	14568.88
515.114	14568.88
515.216	14568.88
515.317	14568.88
515.419	14568.88
515.52	14568.88
515.622	14568.88
515.723	14568.88
515.825	14568.88
515.926	14568.88
516.027	14568.88
516.129	14568.88
516.23	14568.88
516.332	14568.88
516.433	14568.88
516.534	14568.88
516.636	14568.88
516.737	14568.88
516.838	14568.88
516.94	14568.88
517.041	14568.88
517.142	14568.88
517.244	14568.88
517.345	14568.88
517.446	14568.88
517.547	14568.88
517.649	14568.88
517.75	14568.88
517.851	14568.88
517.952	14568.88
518.054	14568.88
518.155	14568.88
518.256	14568.88
518.357	14568.88
518.458	14568.88
518.56	14568.88
518.661	14568.88
518.762	14568.88
518.863	14568.88
518.964	14568.88
519.065	14568.88
519.166	14568.88
519.268	14568.88
519.369	14568.88
519.47	14568.88
519.571	14568.88
519.672	14568.88
519.773	14568.88
519.874	14568.88
519.975	14568.88
520.076	14568.88
520.177	14568.88
520.278	14568.88
520.379	14568.88
520.48	14568.88
520.581	14568.88
520.682	14568.88
520.783	14568.88
520.884	14568.88
520.985	14568.88
521.086	14568.88
521.187	14568.88
521.288	14568.88
521.389	14568.88
521.489	14568.88
521.59	14568.88
521.691	14568.88
521.792	14568.88
521.893	14568.88
521.994	14568.88
522.095	14568.88
522.195	14568.88
522.296	14568.88
522.397	14568.88
522.498	14568.88
522.599	14568.88
522.699	14568.88
522.8	14568.88
522.901	14568.88
523.002	14568.88
523.102	14568.88
523.203	14568.88
523.304	14568.88
523.405	14568.88
523.505	14568.88
523.606	14568.88
523.707	14568.88
523.807	14568.88
523.908	14568.88
524.009	14568.88
524.109	14568.88
524.21	14568.88
524.31	14568.88
524.411	14568.88
524.512	14568.88
524.612	14568.88
524.713	14568.88
524.813	14568.88
524.914	14568.88
525.014	14568.88
525.115	14568.88
525.216	14568.88
525.316	14568.88
525.417	14568.88
525.517	14568.88
525.618	14568.88
525.718	14568.88
525.819	14568.88
525.919	14568.88
526.019	14568.88
526.12	14568.88
526.22	14568.88
526.321	14568.88
526.421	14568.88
526.522	14568.88
526.622	14568.88
526.722	14568.88
526.823	14568.88
526.923	14568.88
527.023	14568.88
527.124	14568.88
527.224	14568.88
527.324	14568.88
527.425	14568.88
527.525	14568.88
527.625	14568.88
527.726	14568.88
527.826	14568.88
527.926	14568.88
528.026	14568.88
528.127	14568.88
528.227	14568.88
528.327	14568.88
528.427	14568.88
528.528	14568.88
528.628	14568.88
528.728	14568.88
528.828	14568.88
528.928	14568.88
529.029	14568.88
529.129	14568.88
529.229	14568.88
529.329	14568.88
529.429	14568.88
529.529	14568.88
529.629	14568.88
529.729	14568.88
529.829	14568.88
529.93	14568.88
530.03	14568.88
530.13	14568.88
530.23	14568.88
530.33	14568.88
530.43	14568.88
530.53	14568.88
530.63	14568.88
530.73	14568.88
530.83	14568.88
530.93	14568.88
531.03	14568.88
531.13	14568.88
531.23	14568.88
531.33	14568.88
531.429	14568.88
531.529	14568.88
531.629	14568.88
531.729	14568.88
531.829	14568.88
531.929	14568.88
532.029	14568.88
532.129	14568.88
532.229	14568.88
532.328	14568.88
532.428	14568.88
532.528	14568.88
532.628	14568.88
532.728	14568.88
532.827	14568.88
532.927	14568.88
533.027	14568.88
533.127	14568.88
533.227	14568.88
533.326	14568.88
533.426	14568.88
533.526	14568.88
533.625	14568.88
533.725	14568.88
533.825	14568.88
533.924	14568.88
534.024	14568.88
534.124	14568.88
534.223	14568.88
534.323	14568.88
534.423	14568.88
534.522	14568.88
534.622	14568.88
534.722	14568.88
534.821	14568.88
534.921	14568.88
535.02	14568.88
535.12	14568.88
535.219	14568.88
535.319	14568.88
535.419	14568.88
535.518	14400.88
535.618	14400.88
535.717	14309.88
535.817	14185.88
535.916	14064.88
536.016	13972.88
536.115	13952.88
536.215	13985.88
536.314	13761.88
536.413	13653.88
536.513	13721.88
536.612	13757.88
536.712	13511.88
536.811	13569.88
536.91	13452.88
537.01	13375.88
537.109	13502.88
537.209	13387.88
537.308	13294.88
537.407	13458.88
537.507	13385.88
537.606	13163.88
537.705	13350.88
537.805	13269.88
537.904	12991.88
538.003	13091.88
538.102	13422.88
538.202	13023.88
538.301	13023.88
538.4	13102.88
538.499	13023.88
538.599	12951.88
538.698	13026.88
538.797	12891.88
538.896	12991.88
538.995	12864.88
539.095	12824.88
539.194	12877.88
539.293	12675.88
539.392	12725.88
539.491	12466.88
539.59	12572.88
539.689	12762.88
539.789	12473.88
539.888	12340.88
539.987	12282.88
540.086	12314.88
540.185	12267.88
540.284	12335.88
540.383	12301.88
540.482	12174.88
540.581	12093.88
540.68	12148.88
540.779	12212.88
540.878	12031.88
540.977	12178.88
541.076	11953.88
541.175	12058.88
541.274	12241.88
541.373	12037.88
541.472	11929.88
541.571	11871.88
541.67	13473.88
541.769	11952.88
541.868	11735.88
541.966	11852.88
542.065	11686.88
542.164	11712.88
542.263	11640.88
542.362	11795.88
542.461	11675.88
542.56	11639.88
542.658	11607.88
542.757	11694.88
542.856	11647.88
542.955	11513.88
543.054	11397.88
543.152	11727.88
543.251	11715.88
543.35	11719.88
543.449	11540.88
543.547	11512.88
543.646	11536.88
543.745	11677.88
543.843	11531.88
543.942	11703.88
544.041	11612.88
544.14	11615.88
544.238	11613.88
544.337	11809.88
544.436	11680.88
544.534	11863.88
544.633	11590.88
544.731	11756.88
544.83	11735.88
544.929	11763.88
545.027	11795.88
545.126	11907.88
545.224	11913.88
545.323	11958.88
545.421	11996.88
545.52	12049.88
545.619	11902.88
545.717	11792.88
545.816	11906.88
545.914	11779.88
546.013	11989.88
546.111	12125.88
546.209	11899.88
546.308	11691.88
546.406	11789.88
546.505	11865.88
546.603	11778.88
546.702	11712.88
546.8	11571.88
546.899	11679.88
546.997	11649.88
547.095	11663.88
547.194	11799.88
547.292	11769.88
547.39	11831.88
547.489	11824.88
547.587	12106.88
547.685	11578.88
547.784	12158.88
547.882	11813.88
547.98	12007.88
548.079	12178.88
548.177	11761.88
548.275	11829.88
548.373	12022.88
548.472	11741.88
548.57	11645.88
548.668	11989.88
548.766	11854.88
548.864	11988.88
548.963	11858.88
549.061	12157.88
549.159	11934.88
549.257	12165.88
549.355	12219.88
549.454	12118.88
549.552	12061.88
549.65	12214.88
549.748	12092.88
549.846	11980.88
549.944	11947.88
550.042	11813.88
550.14	11867.88
550.238	11813.88
550.336	11566.88
550.434	11527.88
550.532	11700.88
550.631	11790.88
550.729	11663.88
550.827	11747.88
550.925	11733.88
551.023	11567.88
551.121	11529.88
551.218	11606.88
551.316	11622.88
551.414	11695.88
551.512	11698.88
551.61	11842.88
551.708	11909.88
551.806	11974.88
551.904	11981.88
552.002	11979.88
552.1	12101.88
552.198	12331.88
552.296	12766.88
552.393	12680.88
552.491	13027.88
552.589	13088.88
552.687	13185.88
552.785	13115.88
552.882	13414.88
552.98	13496.88
553.078	13643.88
553.176	13695.88
553.274	13450.88
553.371	13409.88
553.469	13533.88
553.567	13239.88
553.665	13091.88
553.762	13532.88
553.86	13004.88
553.958	12761.88
554.055	12359.88
554.153	12546.88
554.251	12333.88
554.348	12301.88
554.446	12045.88
554.544	12122.88
554.641	12312.88
554.739	12012.88
554.837	11789.88
554.934	11745.88
555.032	11667.88
555.129	11504.88
555.227	11734.88
555.324	14568.88
555.422	11532.88
555.519	11189.88
555.617	11148.88
555.715	11042.88
555.812	11557.88
555.91	10994.88
556.007	11023.88
556.105	10916.88
556.202	10858.88
556.299	10830.88
556.397	10887.88
556.494	10795.88
556.592	10764.88
556.689	10862.88
556.787	10812.88
556.884	10682.88
556.981	10725.88
557.079	10576.88
557.176	10633.88
557.273	10727.88
557.371	10651.88
557.468	10631.88
557.566	10695.88
557.663	10593.88
557.76	10556.88
557.857	10596.88
557.955	10725.88
558.052	10710.88
558.149	10797.88
558.247	10860.88
558.344	10510.88
558.441	10640.88
558.538	10621.88
558.636	10646.88
558.733	10670.88
558.83	10613.88
558.927	10623.88
559.024	10596.88
559.122	10622.88
559.219	10729.88
559.316	10704.88
559.413	10870.88
559.51	10692.88
559.607	10635.88
559.704	10625.88
559.801	10811.88
559.899	10712.88
559.996	11107.88
560.093	10819.88
560.19	10835.88
560.287	10762.88
560.384	10975.88
560.481	10815.88
560.578	10838.88
560.675	10848.88
560.772	11068.88
560.869	10809.88
560.966	11035.88
561.063	10847.88
561.16	11004.88
561.257	10898.88
561.354	10987.88
561.451	11136.88
561.548	11022.88
561.645	11154.88
561.742	11108.88
561.838	10965.88
561.935	11074.88
562.032	11252.88
562.129	11213.88
562.226	11278.88
562.323	11204.88
562.42	11235.88
562.516	11439.88
562.613	11380.88
562.71	11371.88
562.807	12279.88
562.904	11488.88
563	11577.88
563.097	11682.88
563.194	11821.88
563.291	11812.88
563.387	11742.88
563.484	11775.88
563.581	11888.88
563.678	11926.88
563.774	12527.88
563.871	12293.88
563.968	12206.88
564.064	12317.88
564.161	12409.88
564.258	12447.88
564.354	12733.88
564.451	12796.88
564.548	12884.88
564.644	12926.88
564.741	13065.88
564.837	13402.88
564.934	13524.88
565.031	13664.88
565.127	13943.88
565.224	14145.88
565.32	14409.88
565.417	14568.88
565.513	14568.88
565.61	14568.88
565.706	14568.88
565.803	14568.88
565.899	14568.88
565.996	14568.88
566.092	14568.88
566.189	14568.88
566.285	14568.88
566.382	14568.88
566.478	14568.88
566.574	14568.88
566.671	14568.88
566.767	14568.88
566.864	14568.88
566.96	14568.88
567.056	14568.88
567.153	14568.88
567.249	14568.88
567.345	14568.88
567.442	14568.88
567.538	14568.88
567.634	14568.88
567.731	14568.88
567.827	14568.88
567.923	14568.88
568.019	14568.88
568.116	14568.88
568.212	14568.88
568.308	14568.88
568.404	14568.88
568.501	14568.88
568.597	14568.88
568.693	14568.88
568.789	14568.88
568.885	14568.88
568.982	14568.88
569.078	14568.88
569.174	14568.88
569.27	14568.88
569.366	14508.88
569.462	14312.88
569.558	14226.88
569.655	13886.88
569.751	13705.88
569.847	13556.88
569.943	13510.88
570.039	13337.88
570.135	13854.88
570.231	13270.88
570.327	13446.88
570.423	13317.88
570.519	13450.88
570.615	13222.88
570.711	13381.88
570.807	13478.88
570.903	13428.88
570.999	13308.88
571.095	13236.88
571.191	12833.88
571.287	12685.88
571.383	12587.88
571.479	12215.88
571.574	12152.88
571.67	11840.88
571.766	11914.88
571.862	11598.88
571.958	11459.88
572.054	11403.88
572.15	11118.88
572.246	11002.88
572.341	11250.88
572.437	10974.88
572.533	10943.88
572.629	10923.88
572.725	10738.88
572.82	10719.88
572.916	10842.88
573.012	10678.88
573.108	10734.88
573.203	10547.88
573.299	10490.88
573.395	10439.88
573.49	10359.88
573.586	10226.88
573.682	10297.88
573.778	10370.88
573.873	10200.88
573.969	10122.88
574.065	10122.88
574.16	10100.88
574.256	10230.88
574.351	10309.88
574.447	10143.88
574.543	10214.88
574.638	10147.88
574.734	10199.88
574.829	10218.88
574.925	9963.88
575.02	9935.88
575.116	9892.88
575.212	9635.88
575.307	9765.88
575.403	9548.88
575.498	9669.88
575.594	9370.88
575.689	9590.88
575.784	9459.88
575.88	9482.88
575.975	9469.88
576.071	9311.88
576.166	9312.88
576.262	9246.88
576.357	9211.88
576.452	9368.88
576.548	9224.88
576.643	9237.88
576.739	9331.88
576.834	9069.88
576.929	9120.88
577.025	9264.88
577.12	8851.88
577.215	8906.88
577.311	8848.88
577.406	8853.88
577.501	8882.88
577.597	8650.88
577.692	8722.88
577.787	8773.88
577.882	8451.88
577.978	8484.88
578.073	8464.88
578.168	8358.88
578.263	8516.88
578.358	8339.88
578.454	8401.88
578.549	8293.88
578.644	8169.88
578.739	8295.88
578.834	8294.88
578.929	8107.88
579.025	8151.88
579.12	8197.88
579.215	8344.88
579.31	8223.88
579.405	7910.88
579.5	8083.88
579.595	8018.88
579.69	8022.88
579.785	7874.88
579.88	7803.88
579.975	7787.88
580.07	7770.88
580.165	7753.88
580.26	7798.88
580.355	7715.88
580.45	7668.88
580.545	7579.88
580.64	7679.88
580.735	7685.88
580.83	7514.88
580.925	7411.88
581.02	7462.88
581.115	7422.88
581.21	7355.88
581.305	7455.88
581.4	7406.88
581.495	7351.88
581.589	7382.88
581.684	7371.88
581.779	7291.88
581.874	7176.88
581.969	7458.88
582.064	7213.88
582.158	7088.88
582.253	7123.88
582.348	7112.88
582.443	7080.88
582.537	7194.88
582.632	7374.88
582.727	7122.88
582.822	7007.88
582.916	6865.88
583.011	6993.88
583.106	7004.88
583.201	6849.88
583.295	6871.88
583.39	6815.88
583.485	6887.88
583.579	8497.88
583.674	6917.88
583.769	7117.88
583.863	6699.88
583.958	6827.88
584.052	6651.88
584.147	6757.88
584.242	6590.88
584.336	6721.88
584.431	6942.88
584.525	6544.88
584.62	6919.88
584.714	6751.88
584.809	6513.88
584.903	6588.88
584.998	6626.88
585.092	6549.88
585.187	6504.88
585.281	6601.88
585.376	6624.88
585.47	6637.88
585.565	6638.88
585.659	6541.88
585.754	6532.88
585.848	6410.88
585.942	6518.88
586.037	6443.88
586.131	7751.88
586.226	6464.88
586.32	6472.88
586.414	6304.88
586.509	6566.88
586.603	6475.88
586.697	6295.88
586.792	6386.88
586.886	6256.88
586.98	6431.88
587.075	6222.88
587.169	6331.88
587.263	6469.88
587.357	6176.88
587.452	6118.88
587.546	6336.88
587.64	6167.88
587.734	6140.88
587.829	6331.88
587.923	6234.88
588.017	6262.88
588.111	6212.88
588.205	6344.88
588.3	6367.88
588.394	6355.88
588.488	6493.88
588.582	6780.88
588.676	7304.88
588.77	10145.88
588.864	14568.88
588.958	14568.88
589.052	13472.88
589.147	9670.88
589.241	7972.88
589.335	8172.88
589.429	12817.88
589.523	14568.88
589.617	12398.88
589.711	9043.88
589.805	7339.88
589.899	6967.88
589.993	6360.88
590.087	6281.88
590.181	6310.88
590.275	6207.88
590.369	6254.88
590.462	6084.88
590.556	6202.88
590.65	6084.88
590.744	6142.88
590.838	6174.88
590.932	6173.88
591.026	6298.88
591.12	6478.88
591.214	6215.88
591.307	6280.88
591.401	6319.88
591.495	6420.88
591.589	6286.88
591.683	6494.88
591.777	6507.88
591.87	6996.88
591.964	6637.88
592.058	6641.88
592.152	6793.88
592.245	6829.88
592.339	7037.88
592.433	7093.88
592.527	7120.88
592.62	7217.88
592.714	7307.88
592.808	7532.88
592.901	7568.88
592.995	7626.88
593.089	7876.88
593.182	7669.88
593.276	7612.88
593.37	7625.88
593.463	7532.88
593.557	7635.88
593.65	7622.88
593.744	7678.88
593.837	7759.88
593.931	7675.88
594.025	11344.88
594.118	8008.88
594.212	7613.88
594.305	7500.88
594.399	7479.88
594.492	7525.88
594.586	7063.88
594.679	6858.88
594.773	6828.88
594.866	6690.88
594.96	6651.88
595.053	6497.88
595.146	6413.88
595.24	6272.88
595.333	6170.88
595.427	6077.88
595.52	6009.88
595.614	6060.88
595.707	5884.88
595.8	5704.88
595.894	5727.88
595.987	5551.88
596.08	5522.88
596.174	5647.88
596.267	5503.88
596.36	5463.88
596.454	5424.88
596.547	5350.88
596.64	5137.88
596.733	5118.88
596.827	5187.88
596.92	5149.88
597.013	4994.88
597.106	4912.88
597.2	5058.88
597.293	4930.88
597.386	5131.88
597.479	4999.88
597.572	4894.88
597.666	4925.88
597.759	4844.88
597.852	4999.88
597.945	4741.88
598.038	4782.88
598.131	4902.88
598.224	4726.88
598.317	4930.88
598.411	4808.88
598.504	4762.88
598.597	4752.88
598.69	4784.88
598.783	4631.88
598.876	4647.88
598.969	4708.88
599.062	4533.88
599.155	4757.88
599.248	4575.88
599.341	4679.88
599.434	4616.88
599.527	4631.88
599.62	4664.88
599.713	4515.88
599.806	4621.88
599.899	4836.88
599.991	4504.88
600.084	4768.88
600.177	4568.88
600.27	4553.88
600.363	4639.88
600.456	4415.88
600.549	4658.88
600.642	4401.88
600.734	4401.88
600.827	4429.88
600.92	4520.88
601.013	4421.88
601.106	4613.88
601.199	4396.88
601.291	4492.88
601.384	4343.88
601.477	4526.88
601.57	4407.88
601.662	4285.88
601.755	4399.88
601.848	4311.88
601.94	4269.88
602.033	4479.88
602.126	4313.88
602.219	4259.88
602.311	4474.88
602.404	4232.88
602.497	4229.88
602.589	4321.88
602.682	4282.88
602.774	4278.88
602.867	4396.88
602.96	4286.88
603.052	4262.88
603.145	4234.88
603.237	4370.88
603.33	4293.88
603.422	4300.88
603.515	4240.88
603.608	4281.88
603.7	4195.88
603.793	4272.88
603.885	4305.88
603.978	4180.88
604.07	4197.88
604.163	4149.88
604.255	4223.88
604.347	4175.88
604.44	4151.88
604.532	4094.88
604.625	4163.88
604.717	4115.88
604.81	4219.88
604.902	4067.88
604.994	4092.88
605.087	4100.88
605.179	4095.88
605.271	4133.88
605.364	4178.88
605.456	4066.88
605.548	4091.88
605.641	4214.88
605.733	4145.88
605.825	4191.88
605.918	4118.88
606.01	4257.88
606.102	4424.88
606.194	4014.88
606.287	4219.88
606.379	4019.88
606.471	4076.88
606.563	4132.88
606.655	4120.88
606.748	4079.88
606.84	4078.88
606.932	4106.88
607.024	3921.88
607.116	3946.88
607.208	3962.88
607.301	3904.88
607.393	3978.88
607.485	4054.88
607.577	3969.88
607.669	4068.88
607.761	4092.88
607.853	4251.88
607.945	3920.88
608.037	3926.88
608.129	4004.88
608.221	3900.88
608.313	3957.88
608.405	4014.88
608.497	3865.88
608.589	3927.88
608.681	3977.88
608.773	4059.88
608.865	3939.88
608.957	3992.88
609.049	3924.88
609.141	4038.88
609.233	3890.88
609.325	3864.88
609.417	3931.88
609.509	4067.88
609.601	4151.88
609.693	3978.88
609.784	3905.88
609.876	3951.88
609.968	3926.88
610.06	6156.88
610.152	4114.88
610.244	4202.88
610.335	3833.88
610.427	3909.88
610.519	3812.88
610.611	3781.88
610.702	3811.88
610.794	3725.88
610.886	3731.88
610.978	3721.88
611.069	4187.88
611.161	3610.88
611.253	3640.88
611.344	3478.88
611.436	3407.88
611.528	3464.88
611.62	3418.88
611.711	3352.88
611.803	3413.88
611.894	3314.88
611.986	3247.88
612.078	3204.88
612.169	3224.88
612.261	3173.88
612.352	3038.88
612.444	3123.88
612.536	3230.88
612.627	3038.88
612.719	2921.88
612.81	2884.88
612.902	2825.88
612.993	2798.88
613.085	2736.88
613.176	2647.88
613.268	2671.88
613.359	2645.88
613.451	2651.88
613.542	2517.88
613.634	2527.88
613.725	2534.88
613.816	2478.88
613.908	2293.88
613.999	2286.88
614.091	2237.88
614.182	2114.88
614.273	2233.88
614.365	2086.88
614.456	1971.88
614.547	2039.88
614.639	1970.88
614.73	1947.88
614.821	1964.88
614.913	1810.88
615.004	1709.88
615.095	1744.88
615.187	1768.88
