Data from 21g_HRC06701__67__311.txt Node

Date: Thu Apr 18 02:08:46 CDT 2024
User: Estudiantes 2
Spectrometer: HR+C0670
Trigger mode: 4
Integration Time (sec): 1.000000E0
Scans to average: 1
Electric dark correction enabled: true
Nonlinearity correction enabled: false
Boxcar width: 0
XAxis mode: Wavelengths
Number of Pixels in Spectrum: 2048
>>>>>Begin Spectral Data<<<<<
407.81	-159.25
407.921	-159.25
408.032	-159.25
408.143	-144.25
408.254	-110.25
408.365	25.75
408.476	213.75
408.587	-26.25
408.699	3.75
408.81	-30.25
408.921	-49.25
409.032	-32.25
409.143	38.75
409.254	20.75
409.365	110.75
409.476	-15.25
409.587	6.75
409.698	146.75
409.809	72.75
409.92	-58.25
410.031	-15.25
410.142	97.75
410.253	6.75
410.364	63.75
410.475	326.75
410.585	1421.75
410.696	1620.75
410.807	1586.75
410.918	1590.75
411.029	1639.75
411.14	1639.75
411.251	1591.75
411.362	1694.75
411.472	1676.75
411.583	1646.75
411.694	1676.75
411.805	1703.75
411.916	1721.75
412.026	1745.75
412.137	1666.75
412.248	1678.75
412.359	1628.75
412.47	1573.75
412.58	1550.75
412.691	1646.75
412.802	1587.75
412.912	1564.75
413.023	1660.75
413.134	1633.75
413.245	1681.75
413.355	1617.75
413.466	1576.75
413.577	1582.75
413.687	1740.75
413.798	1498.75
413.909	1714.75
414.019	1665.75
414.13	1597.75
414.24	1599.75
414.351	1718.75
414.462	1870.75
414.572	1659.75
414.683	1733.75
414.793	1735.75
414.904	1952.75
415.014	1671.75
415.125	1652.75
415.235	1674.75
415.346	1753.75
415.456	1833.75
415.567	1638.75
415.677	1650.75
415.788	1707.75
415.898	1601.75
416.009	1618.75
416.119	1672.75
416.23	1665.75
416.34	1592.75
416.45	1693.75
416.561	2370.75
416.671	1817.75
416.782	1585.75
416.892	1762.75
417.002	1725.75
417.113	1755.75
417.223	1733.75
417.333	1693.75
417.444	1715.75
417.554	1760.75
417.664	1795.75
417.775	1647.75
417.885	1736.75
417.995	1832.75
418.106	1955.75
418.216	1870.75
418.326	1933.75
418.436	1850.75
418.547	1914.75
418.657	1854.75
418.767	2070.75
418.877	1923.75
418.987	1921.75
419.098	2027.75
419.208	1930.75
419.318	2023.75
419.428	2060.75
419.538	1849.75
419.648	1971.75
419.759	1955.75
419.869	1978.75
419.979	1854.75
420.089	1947.75
420.199	1899.75
420.309	1966.75
420.419	1929.75
420.529	1991.75
420.639	2378.75
420.749	2055.75
420.859	2064.75
420.969	1979.75
421.079	2176.75
421.189	2106.75
421.299	2080.75
421.409	1980.75
421.519	2094.75
421.629	2211.75
421.739	2036.75
421.849	2042.75
421.959	2080.75
422.069	2121.75
422.179	2102.75
422.289	2194.75
422.399	2230.75
422.509	2282.75
422.619	4722.75
422.729	2485.75
422.838	2208.75
422.948	2268.75
423.058	2268.75
423.168	2288.75
423.278	2307.75
423.388	2397.75
423.498	2412.75
423.607	2449.75
423.717	2754.75
423.827	2678.75
423.937	2444.75
424.046	2578.75
424.156	2533.75
424.266	2516.75
424.376	2681.75
424.485	2681.75
424.595	2495.75
424.705	2535.75
424.815	2595.75
424.924	3015.75
425.034	2646.75
425.144	2519.75
425.253	2524.75
425.363	2602.75
425.473	2666.75
425.582	2484.75
425.692	2529.75
425.801	2545.75
425.911	2691.75
426.021	2611.75
426.13	2711.75
426.24	2845.75
426.349	2662.75
426.459	2726.75
426.568	2705.75
426.678	2706.75
426.787	2641.75
426.897	2625.75
427.006	2655.75
427.116	2723.75
427.225	2730.75
427.335	2862.75
427.444	2690.75
427.554	2808.75
427.663	2760.75
427.773	2690.75
427.882	2797.75
427.992	2841.75
428.101	2811.75
428.21	2720.75
428.32	2972.75
428.429	2795.75
428.539	3188.75
428.648	2811.75
428.757	2895.75
428.867	2892.75
428.976	3067.75
429.085	3070.75
429.195	2896.75
429.304	2947.75
429.413	3016.75
429.523	3051.75
429.632	3031.75
429.741	3083.75
429.85	2949.75
429.96	3035.75
430.069	3083.75
430.178	3086.75
430.287	3373.75
430.397	3138.75
430.506	3201.75
430.615	3073.75
430.724	3264.75
430.833	3258.75
430.943	3185.75
431.052	3192.75
431.161	3286.75
431.27	3302.75
431.379	3343.75
431.488	3537.75
431.597	3520.75
431.706	3609.75
431.816	3516.75
431.925	3488.75
432.034	3450.75
432.143	3541.75
432.252	3536.75
432.361	3437.75
432.47	3434.75
432.579	3531.75
432.688	3414.75
432.797	3450.75
432.906	3360.75
433.015	3566.75
433.124	3775.75
433.233	3578.75
433.342	3616.75
433.451	3467.75
433.56	3626.75
433.669	3666.75
433.778	3548.75
433.886	3637.75
433.995	3715.75
434.104	3871.75
434.213	3717.75
434.322	3737.75
434.431	4060.75
434.54	3968.75
434.649	4261.75
434.757	4190.75
434.866	4089.75
434.975	4041.75
435.084	4050.75
435.193	3865.75
435.301	3972.75
435.41	4084.75
435.519	4100.75
435.628	3530.75
435.737	3456.75
435.845	3465.75
435.954	3330.75
436.063	3441.75
436.171	3520.75
436.28	3434.75
436.389	3534.75
436.498	3486.75
436.606	3471.75
436.715	3576.75
436.823	3408.75
436.932	3191.75
437.041	3243.75
437.149	3316.75
437.258	3245.75
437.367	3083.75
437.475	3169.75
437.584	3375.75
437.692	3090.75
437.801	4693.75
437.91	3304.75
438.018	3099.75
438.127	3013.75
438.235	3175.75
438.344	3151.75
438.452	3097.75
438.561	3064.75
438.669	3196.75
438.778	2981.75
438.886	3017.75
438.995	3068.75
439.103	3081.75
439.212	3063.75
439.32	3114.75
439.428	3071.75
439.537	3148.75
439.645	3220.75
439.754	3160.75
439.862	3086.75
439.97	3296.75
440.079	3193.75
440.187	3098.75
440.295	3356.75
440.404	3209.75
440.512	3192.75
440.62	3341.75
440.729	3375.75
440.837	3393.75
440.945	4122.75
441.054	3628.75
441.162	3446.75
441.27	3734.75
441.378	3683.75
441.487	3657.75
441.595	4110.75
441.703	3766.75
441.811	3637.75
441.92	3506.75
442.028	3391.75
442.136	3474.75
442.244	3477.75
442.352	3419.75
442.461	3416.75
442.569	3337.75
442.677	3421.75
442.785	3456.75
442.893	3484.75
443.001	3417.75
443.109	3346.75
443.217	3483.75
443.325	3435.75
443.434	4062.75
443.542	3743.75
443.65	3585.75
443.758	3691.75
443.866	3704.75
443.974	4108.75
444.082	3903.75
444.19	3994.75
444.298	4087.75
444.406	4209.75
444.514	4298.75
444.622	4376.75
444.73	4367.75
444.838	4173.75
444.946	4181.75
445.054	3924.75
445.161	3836.75
445.269	3810.75
445.377	3768.75
445.485	3660.75
445.593	3615.75
445.701	3838.75
445.809	3569.75
445.917	3559.75
446.025	3506.75
446.132	3563.75
446.24	3598.75
446.348	3594.75
446.456	3432.75
446.564	3433.75
446.671	3539.75
446.779	3427.75
446.887	3381.75
446.995	3456.75
447.102	3511.75
447.21	3503.75
447.318	3346.75
447.426	3340.75
447.533	3645.75
447.641	4697.75
447.749	3531.75
447.856	3380.75
447.964	3365.75
448.072	3390.75
448.179	3289.75
448.287	3416.75
448.395	3400.75
448.502	3344.75
448.61	3371.75
448.718	3321.75
448.825	3490.75
448.933	3382.75
449.04	3287.75
449.148	3478.75
449.256	3438.75
449.363	3457.75
449.471	3474.75
449.578	3600.75
449.686	3438.75
449.793	3613.75
449.901	3567.75
450.008	3577.75
450.116	3617.75
450.223	3646.75
450.331	3777.75
450.438	3760.75
450.546	3895.75
450.653	3813.75
450.76	3776.75
450.868	3969.75
450.975	4105.75
451.083	3880.75
451.19	3991.75
451.297	3903.75
451.405	3935.75
451.512	3845.75
451.619	4096.75
451.727	4073.75
451.834	3947.75
451.941	4130.75
452.049	3980.75
452.156	4002.75
452.263	4104.75
452.371	4078.75
452.478	4085.75
452.585	4259.75
452.692	4106.75
452.8	4194.75
452.907	4330.75
453.014	4213.75
453.121	4109.75
453.229	4256.75
453.336	4395.75
453.443	4377.75
453.55	4278.75
453.657	4294.75
453.765	4375.75
453.872	4271.75
453.979	4472.75
454.086	4386.75
454.193	4341.75
454.3	4347.75
454.407	4499.75
454.514	4506.75
454.621	4396.75
454.729	4396.75
454.836	4369.75
454.943	4512.75
455.05	4521.75
455.157	4601.75
455.264	4410.75
455.371	4561.75
455.478	4540.75
455.585	6000.75
455.692	4632.75
455.799	4891.75
455.906	4694.75
456.013	4716.75
456.12	4722.75
456.227	4662.75
456.334	4712.75
456.44	4920.75
456.547	4784.75
456.654	4677.75
456.761	4956.75
456.868	5013.75
456.975	4892.75
457.082	4805.75
457.189	5018.75
457.296	4983.75
457.402	4933.75
457.509	5017.75
457.616	5073.75
457.723	5369.75
457.83	5268.75
457.936	5243.75
458.043	5648.75
458.15	5363.75
458.257	5425.75
458.363	5488.75
458.47	5627.75
458.577	5790.75
458.684	5828.75
458.79	6078.75
458.897	6171.75
459.004	6288.75
459.11	6218.75
459.217	6347.75
459.324	6462.75
459.43	6656.75
459.537	6750.75
459.644	6690.75
459.75	6833.75
459.857	7398.75
459.964	7382.75
460.07	7151.75
460.177	7321.75
460.283	7502.75
460.39	7580.75
460.496	7312.75
460.603	7540.75
460.71	7357.75
460.816	7291.75
460.923	7295.75
461.029	7327.75
461.136	7343.75
461.242	7277.75
461.349	7294.75
461.455	7401.75
461.562	7658.75
461.668	7683.75
461.774	7544.75
461.881	7721.75
461.987	7778.75
462.094	8027.75
462.2	8232.75
462.307	8102.75
462.413	8046.75
462.519	8426.75
462.626	9039.75
462.732	9066.75
462.838	9502.75
462.945	9848.75
463.051	9685.75
463.157	9485.75
463.264	9170.75
463.37	8789.75
463.476	8492.75
463.583	8406.75
463.689	8453.75
463.795	8481.75
463.901	8353.75
464.008	8721.75
464.114	8624.75
464.22	8472.75
464.326	8431.75
464.433	8172.75
464.539	7977.75
464.645	7877.75
464.751	7978.75
464.857	7516.75
464.963	7171.75
465.07	6968.75
465.176	6748.75
465.282	6507.75
465.388	6425.75
465.494	6175.75
465.6	6080.75
465.706	5862.75
465.812	5908.75
465.918	5925.75
466.024	5729.75
466.131	5719.75
466.237	5521.75
466.343	5318.75
466.449	5286.75
466.555	5259.75
466.661	5154.75
466.767	5192.75
466.873	5183.75
466.979	5274.75
467.085	5098.75
467.191	5168.75
467.296	5080.75
467.402	4996.75
467.508	5109.75
467.614	5137.75
467.72	4855.75
467.826	4866.75
467.932	4653.75
468.038	4630.75
468.144	4659.75
468.25	4600.75
468.355	4588.75
468.461	4633.75
468.567	4629.75
468.673	4655.75
468.779	4586.75
468.885	4666.75
468.99	4494.75
469.096	4566.75
469.202	4744.75
469.308	4775.75
469.413	4758.75
469.519	4695.75
469.625	4738.75
469.731	4671.75
469.836	4762.75
469.942	5058.75
470.048	4977.75
470.153	4917.75
470.259	4906.75
470.365	5002.75
470.47	4882.75
470.576	4827.75
470.682	4737.75
470.787	4715.75
470.893	4576.75
470.999	4651.75
471.104	4572.75
471.21	4350.75
471.315	4294.75
471.421	4246.75
471.527	4451.75
471.632	4319.75
471.738	4303.75
471.843	4128.75
471.949	4199.75
472.054	4112.75
472.16	4092.75
472.265	4106.75
472.371	4051.75
472.476	3988.75
472.582	4100.75
472.687	4011.75
472.793	3833.75
472.898	3871.75
473.003	3957.75
473.109	3851.75
473.214	3835.75
473.32	3897.75
473.425	3892.75
473.53	3884.75
473.636	3743.75
473.741	3834.75
473.847	3779.75
473.952	3834.75
474.057	3943.75
474.163	3883.75
474.268	3837.75
474.373	3909.75
474.478	3782.75
474.584	3789.75
474.689	3870.75
474.794	3826.75
474.9	4083.75
475.005	3851.75
475.11	4073.75
475.215	3791.75
475.321	3817.75
475.426	4119.75
475.531	4011.75
475.636	3781.75
475.741	3854.75
475.846	4038.75
475.952	4134.75
476.057	3975.75
476.162	4028.75
476.267	4116.75
476.372	4303.75
476.477	4059.75
476.582	4135.75
476.687	4021.75
476.793	4098.75
476.898	4079.75
477.003	4216.75
477.108	4266.75
477.213	4160.75
477.318	4242.75
477.423	4368.75
477.528	4480.75
477.633	4466.75
477.738	4451.75
477.843	4481.75
477.948	4540.75
478.053	4533.75
478.158	4656.75
478.263	4672.75
478.368	4653.75
478.473	4819.75
478.578	4744.75
478.682	4749.75
478.787	4922.75
478.892	4793.75
478.997	4995.75
479.102	4919.75
479.207	4840.75
479.312	4986.75
479.417	4893.75
479.521	4907.75
479.626	5115.75
479.731	5006.75
479.836	5144.75
479.941	5316.75
480.045	5410.75
480.15	5520.75
480.255	5489.75
480.36	5372.75
480.465	5480.75
480.569	5519.75
480.674	5191.75
480.779	5093.75
480.883	5133.75
480.988	5153.75
481.093	5088.75
481.197	5034.75
481.302	4984.75
481.407	5041.75
481.511	6341.75
481.616	5127.75
481.721	4996.75
481.825	5221.75
481.93	5003.75
482.035	4991.75
482.139	5069.75
482.244	5118.75
482.348	5025.75
482.453	5118.75
482.557	5229.75
482.662	5117.75
482.767	5231.75
482.871	5267.75
482.976	5206.75
483.08	5339.75
483.185	5422.75
483.289	5327.75
483.394	5275.75
483.498	5497.75
483.603	5379.75
483.707	5477.75
483.811	5601.75
483.916	5731.75
484.02	5568.75
484.125	5761.75
484.229	5827.75
484.333	5905.75
484.438	5759.75
484.542	5900.75
484.647	5893.75
484.751	5902.75
484.855	5952.75
484.96	6064.75
485.064	6055.75
485.168	6164.75
485.273	6235.75
485.377	6220.75
485.481	6498.75
485.585	6348.75
485.69	6279.75
485.794	6277.75
485.898	6343.75
486.002	6404.75
486.107	6305.75
486.211	6413.75
486.315	6496.75
486.419	6523.75
486.524	6487.75
486.628	6448.75
486.732	6321.75
486.836	6336.75
486.94	6596.75
487.044	6497.75
487.148	6569.75
487.253	6390.75
487.357	6563.75
487.461	6598.75
487.565	6480.75
487.669	6593.75
487.773	6514.75
487.877	6560.75
487.981	6646.75
488.085	6575.75
488.189	6491.75
488.293	6742.75
488.397	6999.75
488.501	6521.75
488.605	6586.75
488.709	6584.75
488.813	6552.75
488.917	6571.75
489.021	6603.75
489.125	6894.75
489.229	6471.75
489.333	6820.75
489.437	6661.75
489.541	6602.75
489.645	6633.75
489.749	6772.75
489.853	6760.75
489.956	6579.75
490.06	6765.75
490.164	6780.75
490.268	6699.75
490.372	6753.75
490.476	6586.75
490.579	6731.75
490.683	7458.75
490.787	6737.75
490.891	6622.75
490.995	6845.75
491.098	6659.75
491.202	6759.75
491.306	6784.75
491.41	6733.75
491.513	6606.75
491.617	6731.75
491.721	6946.75
491.824	6964.75
491.928	6694.75
492.032	7020.75
492.136	6792.75
492.239	6715.75
492.343	6807.75
492.446	7265.75
492.55	6795.75
492.654	6626.75
492.757	6775.75
492.861	6791.75
492.965	6775.75
493.068	6887.75
493.172	6746.75
493.275	6745.75
493.379	6744.75
493.482	6878.75
493.586	6987.75
493.689	7162.75
493.793	6933.75
493.896	6996.75
494	6939.75
494.103	7095.75
494.207	7237.75
494.31	7262.75
494.414	6967.75
494.517	6912.75
494.621	6790.75
494.724	6818.75
494.828	6784.75
494.931	6753.75
495.034	6848.75
495.138	6950.75
495.241	6632.75
495.345	7521.75
495.448	6824.75
495.551	6637.75
495.655	6661.75
495.758	6779.75
495.861	6749.75
495.965	6591.75
496.068	6859.75
496.171	6825.75
496.274	6791.75
496.378	6889.75
496.481	6927.75
496.584	6933.75
496.687	6890.75
496.791	7023.75
496.894	7014.75
496.997	7024.75
497.1	7179.75
497.204	7090.75
497.307	7185.75
497.41	7582.75
497.513	7604.75
497.616	7429.75
497.719	7600.75
497.823	7699.75
497.926	7867.75
498.029	8006.75
498.132	8199.75
498.235	8314.75
498.338	8527.75
498.441	9027.75
498.544	9100.75
498.647	9371.75
498.75	9738.75
498.853	10093.75
498.956	10417.75
499.059	10929.75
499.163	11115.75
499.266	11501.75
499.369	12181.75
499.471	12442.75
499.574	13251.75
499.677	13904.75
499.78	14563.75
499.883	14563.75
499.986	14563.75
500.089	14563.75
500.192	14563.75
500.295	14563.75
500.398	14563.75
500.501	14563.75
500.604	14563.75
500.707	14563.75
500.809	14563.75
500.912	13884.75
501.015	13246.75
501.118	12488.75
501.221	11842.75
501.324	11160.75
501.426	10882.75
501.529	10079.75
501.632	9734.75
501.735	9413.75
501.837	9161.75
501.94	8901.75
502.043	8691.75
502.146	8512.75
502.248	8081.75
502.351	7930.75
502.454	7909.75
502.557	7544.75
502.659	7447.75
502.762	7355.75
502.865	6989.75
502.967	6923.75
503.07	6870.75
503.173	6712.75
503.275	6507.75
503.378	6541.75
503.48	6445.75
503.583	6499.75
503.686	6506.75
503.788	6687.75
503.891	6448.75
503.993	6731.75
504.096	6532.75
504.198	6621.75
504.301	6511.75
504.403	6544.75
504.506	6551.75
504.608	6192.75
504.711	6088.75
504.813	5989.75
504.916	5779.75
505.018	5519.75
505.121	5522.75
505.223	5425.75
505.326	5298.75
505.428	5414.75
505.531	5192.75
505.633	5068.75
505.735	5169.75
505.838	5100.75
505.94	5048.75
506.042	4837.75
506.145	4849.75
506.247	4989.75
506.35	4815.75
506.452	4832.75
506.554	4820.75
506.656	4825.75
506.759	4644.75
506.861	4718.75
506.963	4748.75
507.066	4782.75
507.168	4774.75
507.27	4637.75
507.372	4569.75
507.475	4574.75
507.577	4636.75
507.679	4497.75
507.781	4497.75
507.883	4454.75
507.986	4395.75
508.088	4490.75
508.19	4447.75
508.292	4379.75
508.394	4483.75
508.496	4380.75
508.598	4402.75
508.701	4391.75
508.803	4404.75
508.905	4308.75
509.007	4366.75
509.109	4486.75
509.211	4369.75
509.313	4270.75
509.415	4264.75
509.517	4314.75
509.619	4272.75
509.721	4281.75
509.823	4247.75
509.925	4417.75
510.027	4161.75
510.129	4249.75
510.231	4268.75
510.333	4207.75
510.435	4167.75
510.537	4299.75
510.639	4291.75
510.741	4261.75
510.843	4286.75
510.945	4255.75
511.047	4373.75
511.148	4301.75
511.25	4220.75
511.352	4234.75
511.454	4136.75
511.556	4308.75
511.658	4343.75
511.76	4320.75
511.861	4418.75
511.963	4215.75
512.065	4338.75
512.167	4246.75
512.268	4399.75
512.37	4311.75
512.472	4313.75
512.574	4293.75
512.676	4294.75
512.777	4312.75
512.879	4274.75
512.981	4214.75
513.082	4351.75
513.184	4347.75
513.286	4838.75
513.387	4474.75
513.489	4484.75
513.591	4400.75
513.692	4614.75
513.794	4504.75
513.896	4274.75
513.997	4367.75
514.099	4308.75
514.2	4440.75
514.302	4476.75
514.404	4585.75
514.505	4494.75
514.607	4549.75
514.708	4549.75
514.81	4748.75
514.911	4693.75
515.013	4774.75
515.114	4735.75
515.216	4765.75
515.317	4813.75
515.419	4717.75
515.52	4959.75
515.622	4896.75
515.723	5077.75
515.825	5100.75
515.926	5147.75
516.027	5150.75
516.129	5097.75
516.23	5276.75
516.332	5445.75
516.433	5467.75
516.534	5606.75
516.636	5692.75
516.737	5775.75
516.838	7096.75
516.94	6218.75
517.041	6321.75
517.142	6513.75
517.244	6667.75
517.345	6720.75
517.446	6711.75
517.547	6818.75
517.649	6721.75
517.75	6724.75
517.851	6651.75
517.952	6859.75
518.054	6551.75
518.155	6499.75
518.256	6283.75
518.357	6316.75
518.458	5950.75
518.56	5901.75
518.661	5936.75
518.762	5705.75
518.863	5849.75
518.964	5824.75
519.065	5581.75
519.166	5610.75
519.268	5448.75
519.369	5647.75
519.47	5352.75
519.571	5365.75
519.672	5306.75
519.773	5165.75
519.874	5287.75
519.975	5343.75
520.076	5230.75
520.177	5249.75
520.278	5247.75
520.379	5162.75
520.48	5077.75
520.581	5061.75
520.682	5056.75
520.783	5123.75
520.884	5147.75
520.985	5106.75
521.086	5089.75
521.187	5106.75
521.288	5052.75
521.389	5036.75
521.489	4990.75
521.59	4968.75
521.691	5073.75
521.792	4894.75
521.893	5044.75
521.994	5132.75
522.095	4969.75
522.195	5037.75
522.296	5193.75
522.397	5132.75
522.498	4996.75
522.599	4920.75
522.699	4995.75
522.8	4964.75
522.901	5087.75
523.002	4938.75
523.102	5190.75
523.203	4992.75
523.304	5174.75
523.405	4950.75
523.505	4959.75
523.606	5094.75
523.707	5018.75
523.807	5096.75
523.908	5066.75
524.009	5107.75
524.109	5089.75
524.21	5098.75
524.31	5065.75
524.411	5116.75
524.512	5180.75
524.612	5093.75
524.713	5248.75
524.813	5042.75
524.914	5365.75
525.014	11016.75
525.115	5474.75
525.216	5115.75
525.316	5115.75
525.417	5069.75
525.517	5015.75
525.618	5080.75
525.718	5036.75
525.819	5028.75
525.919	5096.75
526.019	5040.75
526.12	5217.75
526.22	5173.75
526.321	5006.75
526.421	4967.75
526.522	5246.75
526.622	5037.75
526.722	5050.75
526.823	5230.75
526.923	5088.75
527.023	5230.75
527.124	5013.75
527.224	5281.75
527.324	4953.75
527.425	5016.75
527.525	5007.75
527.625	5105.75
527.726	5081.75
527.826	5271.75
527.926	5108.75
528.026	5080.75
528.127	5136.75
528.227	5148.75
528.327	5275.75
528.427	5126.75
528.528	5133.75
528.628	5186.75
528.728	5158.75
528.828	5204.75
528.928	5139.75
529.029	5043.75
529.129	5092.75
529.229	5131.75
529.329	5142.75
529.429	5201.75
529.529	5192.75
529.629	5177.75
529.729	5007.75
529.829	5191.75
529.93	5061.75
530.03	5057.75
530.13	5161.75
530.23	5021.75
530.33	5206.75
530.43	5144.75
530.53	4998.75
530.63	5013.75
530.73	5004.75
530.83	4943.75
530.93	4936.75
531.03	5008.75
531.13	5040.75
531.23	5045.75
531.33	5069.75
531.429	5144.75
531.529	5245.75
531.629	5045.75
531.729	4987.75
531.829	4945.75
531.929	4891.75
532.029	4954.75
532.129	4865.75
532.229	4944.75
532.328	4927.75
532.428	4938.75
532.528	4825.75
532.628	4844.75
532.728	4900.75
532.827	4847.75
532.927	4989.75
533.027	4903.75
533.127	5038.75
533.227	4862.75
533.326	4896.75
533.426	4750.75
533.526	4884.75
533.625	4926.75
533.725	5036.75
533.825	4857.75
533.924	4788.75
534.024	4672.75
534.124	4614.75
534.223	4816.75
534.323	5224.75
534.423	4631.75
534.522	4697.75
534.622	4705.75
534.722	4527.75
534.821	4580.75
534.921	4560.75
535.02	4476.75
535.12	4515.75
535.219	4631.75
535.319	4645.75
535.419	4621.75
535.518	4397.75
535.618	4497.75
535.717	4624.75
535.817	4377.75
535.916	4278.75
536.016	4452.75
536.115	4263.75
536.215	4305.75
536.314	4255.75
536.413	4258.75
536.513	4271.75
536.612	4342.75
536.712	4200.75
536.811	4211.75
536.91	4230.75
537.01	4145.75
537.109	4201.75
537.209	4269.75
537.308	4160.75
537.407	4175.75
537.507	4104.75
537.606	4079.75
537.705	4127.75
537.805	4133.75
537.904	4024.75
538.003	4126.75
538.102	4186.75
538.202	4063.75
538.301	4128.75
538.4	4058.75
538.499	4013.75
538.599	4039.75
538.698	4269.75
538.797	3998.75
538.896	4042.75
538.995	4009.75
539.095	3957.75
539.194	4246.75
539.293	3937.75
539.392	3927.75
539.491	3985.75
539.59	3918.75
539.689	4061.75
539.789	3996.75
539.888	3777.75
539.987	3804.75
540.086	3918.75
540.185	3850.75
540.284	3806.75
540.383	3830.75
540.482	3895.75
540.581	3847.75
540.68	3689.75
540.779	3862.75
540.878	3775.75
540.977	3857.75
541.076	3745.75
541.175	3698.75
541.274	3998.75
541.373	3869.75
541.472	3711.75
541.571	3660.75
541.67	5210.75
541.769	3870.75
541.868	3775.75
541.966	3723.75
542.065	3730.75
542.164	3694.75
542.263	3612.75
542.362	3739.75
542.461	3736.75
542.56	3780.75
542.658	3657.75
542.757	3678.75
542.856	3611.75
542.955	3582.75
543.054	3601.75
543.152	3832.75
543.251	3632.75
543.35	3775.75
543.449	3596.75
543.547	3657.75
543.646	3553.75
543.745	3681.75
543.843	3633.75
543.942	3690.75
544.041	3678.75
544.14	3608.75
544.238	3611.75
544.337	3858.75
544.436	3753.75
544.534	3850.75
544.633	3725.75
544.731	3670.75
544.83	3736.75
544.929	3723.75
545.027	3735.75
545.126	3720.75
545.224	3835.75
545.323	3645.75
545.421	3739.75
545.52	3787.75
545.619	3723.75
545.717	3618.75
545.816	3731.75
545.914	3758.75
546.013	3956.75
546.111	3906.75
546.209	3675.75
546.308	3630.75
546.406	3665.75
546.505	3781.75
546.603	3722.75
546.702	3615.75
546.8	3670.75
546.899	3708.75
546.997	3675.75
547.095	3651.75
547.194	3797.75
547.292	3654.75
547.39	3763.75
547.489	3668.75
547.587	3958.75
547.685	3645.75
547.784	3947.75
547.882	3783.75
547.98	3629.75
548.079	3786.75
548.177	3798.75
548.275	3648.75
548.373	3788.75
548.472	3701.75
548.57	3689.75
548.668	3819.75
548.766	3709.75
548.864	3800.75
548.963	3713.75
549.061	3890.75
549.159	3733.75
549.257	3872.75
549.355	3758.75
549.454	3810.75
549.552	3867.75
549.65	3758.75
549.748	3716.75
549.846	3767.75
549.944	3718.75
550.042	3725.75
550.14	3778.75
550.238	3673.75
550.336	3613.75
550.434	3635.75
550.532	3575.75
550.631	3683.75
550.729	3747.75
550.827	3661.75
550.925	3616.75
551.023	3622.75
551.121	3525.75
551.218	3582.75
551.316	3608.75
551.414	3681.75
551.512	3554.75
551.61	3741.75
551.708	3791.75
551.806	3772.75
551.904	3751.75
552.002	3717.75
552.1	3826.75
552.198	3824.75
552.296	4038.75
552.393	4081.75
552.491	4150.75
552.589	4126.75
552.687	4195.75
552.785	4155.75
552.882	4306.75
552.98	4442.75
553.078	4249.75
553.176	4258.75
553.274	4191.75
553.371	4134.75
553.469	4158.75
553.567	4108.75
553.665	3982.75
553.762	4444.75
553.86	4135.75
553.958	4022.75
554.055	3980.75
554.153	3966.75
554.251	3866.75
554.348	3854.75
554.446	3804.75
554.544	3829.75
554.641	4025.75
554.739	3653.75
554.837	3724.75
554.934	3739.75
555.032	3719.75
555.129	3582.75
555.227	3894.75
555.324	7520.75
555.422	3864.75
555.519	3542.75
555.617	3530.75
555.715	3424.75
555.812	3913.75
555.91	3435.75
556.007	3491.75
556.105	3422.75
556.202	3463.75
556.299	3428.75
556.397	3523.75
556.494	3341.75
556.592	3358.75
556.689	3429.75
556.787	3369.75
556.884	3286.75
556.981	3355.75
557.079	3333.75
557.176	3460.75
557.273	3395.75
557.371	3513.75
557.468	3329.75
557.566	3389.75
557.663	3349.75
557.76	3402.75
557.857	3336.75
557.955	3377.75
558.052	3433.75
558.149	3585.75
558.247	3536.75
558.344	3395.75
558.441	3377.75
558.538	3319.75
558.636	3404.75
558.733	3418.75
558.83	3400.75
558.927	3384.75
559.024	3313.75
559.122	3399.75
559.219	3480.75
559.316	3485.75
559.413	3514.75
559.51	3404.75
559.607	3390.75
559.704	3439.75
559.801	3520.75
559.899	3441.75
559.996	3701.75
560.093	3420.75
560.19	3377.75
560.287	3540.75
560.384	3617.75
560.481	3429.75
560.578	3435.75
560.675	3430.75
560.772	3454.75
560.869	3518.75
560.966	3629.75
561.063	3480.75
561.16	3612.75
561.257	3545.75
561.354	3442.75
561.451	3511.75
561.548	3537.75
561.645	3731.75
561.742	3553.75
561.838	3601.75
561.935	3522.75
562.032	3510.75
562.129	3591.75
562.226	3494.75
562.323	3564.75
562.42	3670.75
562.516	3582.75
562.613	3553.75
562.71	3606.75
562.807	4404.75
562.904	3630.75
563	3705.75
563.097	3721.75
563.194	3646.75
563.291	3656.75
563.387	3761.75
563.484	3769.75
563.581	3861.75
563.678	3825.75
563.774	4228.75
563.871	3885.75
563.968	3898.75
564.064	3872.75
564.161	3859.75
564.258	3914.75
564.354	4056.75
564.451	4021.75
564.548	4090.75
564.644	4221.75
564.741	4142.75
564.837	4203.75
564.934	4322.75
565.031	4231.75
565.127	4296.75
565.224	4453.75
565.32	4623.75
565.417	4573.75
565.513	4808.75
565.61	4945.75
565.706	5010.75
565.803	5021.75
565.899	5208.75
565.996	5315.75
566.092	5446.75
566.189	5788.75
566.285	5835.75
566.382	6109.75
566.478	6363.75
566.574	6516.75
566.671	6560.75
566.767	6576.75
566.864	6556.75
566.96	6680.75
567.056	6638.75
567.153	7019.75
567.249	6977.75
567.345	7292.75
567.442	7486.75
567.538	7671.75
567.634	7722.75
567.731	7845.75
567.827	7736.75
567.923	7683.75
568.019	7235.75
568.116	6965.75
568.212	6578.75
568.308	6467.75
568.404	6096.75
568.501	5898.75
568.597	5790.75
568.693	5557.75
568.789	6129.75
568.885	5113.75
568.982	5178.75
569.078	4885.75
569.174	4833.75
569.27	4592.75
569.366	4598.75
569.462	4462.75
569.558	4337.75
569.655	4442.75
569.751	4211.75
569.847	4245.75
569.943	4253.75
570.039	4085.75
570.135	4683.75
570.231	4221.75
570.327	4315.75
570.423	4290.75
570.519	4281.75
570.615	4141.75
570.711	4262.75
570.807	4276.75
570.903	4144.75
570.999	4124.75
571.095	4121.75
571.191	4037.75
571.287	4001.75
571.383	3936.75
571.479	3896.75
571.574	3914.75
571.67	3760.75
571.766	3935.75
571.862	3693.75
571.958	3566.75
572.054	3704.75
572.15	3548.75
572.246	3496.75
572.341	3539.75
572.437	3522.75
572.533	3486.75
572.629	3475.75
572.725	3551.75
572.82	3408.75
572.916	3570.75
573.012	3470.75
573.108	3440.75
573.203	3340.75
573.299	3302.75
573.395	3310.75
573.49	3246.75
573.586	3201.75
573.682	3430.75
573.778	3429.75
573.873	3267.75
573.969	3279.75
574.065	3202.75
574.16	3195.75
574.256	3306.75
574.351	3397.75
574.447	3216.75
574.543	3295.75
574.638	3320.75
574.734	3270.75
574.829	3448.75
574.925	3295.75
575.02	3151.75
575.116	3095.75
575.212	3179.75
575.307	3226.75
575.403	3066.75
575.498	3158.75
575.594	3043.75
575.689	3066.75
575.784	3070.75
575.88	3089.75
575.975	2994.75
576.071	2972.75
576.166	2930.75
576.262	3083.75
576.357	2975.75
576.452	3194.75
576.548	2950.75
576.643	2919.75
576.739	2984.75
576.834	2913.75
576.929	2922.75
577.025	3123.75
577.12	2861.75
577.215	2839.75
577.311	2867.75
577.406	3013.75
577.501	3001.75
577.597	2744.75
577.692	2982.75
577.787	2875.75
577.882	2708.75
577.978	2765.75
578.073	2718.75
578.168	2677.75
578.263	2714.75
578.358	2727.75
578.454	2642.75
578.549	2641.75
578.644	2634.75
578.739	2730.75
578.834	2697.75
578.929	2651.75
579.025	2646.75
579.12	2752.75
579.215	2909.75
579.31	2818.75
579.405	2619.75
579.5	2649.75
579.595	2589.75
579.69	2448.75
579.785	2530.75
579.88	2592.75
579.975	2590.75
580.07	2437.75
580.165	2603.75
580.26	2622.75
580.355	2507.75
580.45	2505.75
580.545	2439.75
580.64	2487.75
580.735	2543.75
580.83	2574.75
580.925	2364.75
581.02	2387.75
581.115	2438.75
581.21	2291.75
581.305	2402.75
581.4	2458.75
581.495	2394.75
581.589	2316.75
581.684	2341.75
581.779	2485.75
581.874	2417.75
581.969	2462.75
582.064	2350.75
582.158	2283.75
582.253	2274.75
582.348	2439.75
582.443	2296.75
582.537	2298.75
582.632	2553.75
582.727	2276.75
582.822	2244.75
582.916	2217.75
583.011	2218.75
583.106	2293.75
583.201	2280.75
583.295	2255.75
583.39	2181.75
583.485	2143.75
583.579	3850.75
583.674	2376.75
583.769	2477.75
583.863	2300.75
583.958	2220.75
584.052	2159.75
584.147	2248.75
584.242	2112.75
584.336	2118.75
584.431	2390.75
584.525	2194.75
584.62	2318.75
584.714	2273.75
584.809	2299.75
584.903	2192.75
584.998	2249.75
585.092	2152.75
585.187	2126.75
585.281	2088.75
585.376	2236.75
585.47	2134.75
585.565	2126.75
585.659	2097.75
585.754	2130.75
585.848	2154.75
585.942	2103.75
586.037	2108.75
586.131	4492.75
586.226	2306.75
586.32	2262.75
586.414	2012.75
586.509	2152.75
586.603	2202.75
586.697	2037.75
586.792	2016.75
586.886	2017.75
586.98	2169.75
587.075	2073.75
587.169	2055.75
587.263	2324.75
587.357	2086.75
587.452	1954.75
587.546	2185.75
587.64	1974.75
587.734	2098.75
587.829	2178.75
587.923	2062.75
588.017	2097.75
588.111	2071.75
588.205	2273.75
588.3	2135.75
588.394	2090.75
588.488	2225.75
588.582	2397.75
588.676	2689.75
588.77	4053.75
588.864	7838.75
588.958	7537.75
589.052	5475.75
589.147	3745.75
589.241	2996.75
589.335	3057.75
589.429	5295.75
589.523	6195.75
589.617	4921.75
589.711	3451.75
589.805	2720.75
589.899	2415.75
589.993	2184.75
590.087	2032.75
590.181	2060.75
590.275	2181.75
590.369	2016.75
590.462	2005.75
590.556	2007.75
590.65	2061.75
590.744	1985.75
590.838	2018.75
590.932	2126.75
591.026	2085.75
591.12	2168.75
591.214	2079.75
591.307	2027.75
591.401	2099.75
591.495	2163.75
591.589	2000.75
591.683	2134.75
591.777	2179.75
591.87	2538.75
591.964	2175.75
592.058	2182.75
592.152	2266.75
592.245	2201.75
592.339	2310.75
592.433	2496.75
592.527	2388.75
592.62	2295.75
592.714	2353.75
592.808	2421.75
592.901	2458.75
592.995	2446.75
593.089	2729.75
593.182	2506.75
593.276	2386.75
593.37	2443.75
593.463	2397.75
593.557	2452.75
593.65	2524.75
593.744	2509.75
593.837	2615.75
593.931	2522.75
594.025	6369.75
594.118	2765.75
594.212	2433.75
594.305	2317.75
594.399	2352.75
594.492	2713.75
594.586	2334.75
594.679	2152.75
594.773	2189.75
594.866	2260.75
594.96	2145.75
595.053	2065.75
595.146	2087.75
595.24	2011.75
595.333	1942.75
595.427	1931.75
595.52	1931.75
595.614	2095.75
595.707	1953.75
595.8	1944.75
595.894	1930.75
595.987	1797.75
596.08	1818.75
596.174	2146.75
596.267	1882.75
596.36	1970.75
596.454	1869.75
596.547	1846.75
596.64	1742.75
596.733	1663.75
596.827	1798.75
596.92	1706.75
597.013	1649.75
597.106	1594.75
597.2	1603.75
597.293	1685.75
597.386	1823.75
597.479	1648.75
597.572	1694.75
597.666	1598.75
597.759	1608.75
597.852	1732.75
597.945	1573.75
598.038	1553.75
598.131	1629.75
598.224	1640.75
598.317	1645.75
598.411	1561.75
598.504	1632.75
598.597	1594.75
598.69	1534.75
598.783	1513.75
598.876	1582.75
598.969	1571.75
599.062	1530.75
599.155	1611.75
599.248	1522.75
599.341	1562.75
599.434	1580.75
599.527	1551.75
599.62	1536.75
599.713	1551.75
599.806	1556.75
599.899	1712.75
599.991	1531.75
600.084	1791.75
600.177	1523.75
600.27	1535.75
600.363	1646.75
600.456	1461.75
600.549	1516.75
600.642	1424.75
600.734	1473.75
600.827	1524.75
600.92	1658.75
601.013	1462.75
601.106	1577.75
601.199	1502.75
601.291	1409.75
601.384	1515.75
601.477	1702.75
601.57	1584.75
601.662	1474.75
601.755	1471.75
601.848	1557.75
601.94	1396.75
602.033	1574.75
602.126	1494.75
602.219	1459.75
602.311	1547.75
602.404	1482.75
602.497	1383.75
602.589	1424.75
602.682	1483.75
602.774	1444.75
602.867	1455.75
602.96	1457.75
603.052	1448.75
603.145	1409.75
603.237	1432.75
603.33	1515.75
603.422	1484.75
603.515	1384.75
603.608	1441.75
603.7	1410.75
603.793	1425.75
603.885	1468.75
603.978	1409.75
604.07	1396.75
604.163	1360.75
604.255	1489.75
604.347	1367.75
604.44	1333.75
604.532	1480.75
604.625	1444.75
604.717	1409.75
604.81	1480.75
604.902	1337.75
604.994	1366.75
605.087	1389.75
605.179	1385.75
605.271	1408.75
605.364	1392.75
605.456	1465.75
605.548	1377.75
605.641	1363.75
605.733	1367.75
605.825	1375.75
605.918	1301.75
606.01	1586.75
606.102	1849.75
606.194	1371.75
606.287	1541.75
606.379	1318.75
606.471	1341.75
606.563	1450.75
606.655	1458.75
606.748	1370.75
606.84	1359.75
606.932	1508.75
607.024	1369.75
607.116	1282.75
607.208	1365.75
607.301	1352.75
607.393	1306.75
607.485	1369.75
607.577	1416.75
607.669	1391.75
607.761	1415.75
607.853	1662.75
607.945	1323.75
608.037	1276.75
608.129	1322.75
608.221	1340.75
608.313	1322.75
608.405	1480.75
608.497	1355.75
608.589	1329.75
608.681	1365.75
608.773	1398.75
608.865	1303.75
608.957	1366.75
609.049	1334.75
609.141	1401.75
609.233	1330.75
609.325	1328.75
609.417	1304.75
609.509	1397.75
609.601	1515.75
609.693	1384.75
609.784	1317.75
609.876	1408.75
609.968	1412.75
610.06	3853.75
610.152	1601.75
610.244	1667.75
610.335	1300.75
610.427	1321.75
610.519	1347.75
610.611	1337.75
610.702	1334.75
610.794	1351.75
610.886	1391.75
610.978	1286.75
611.069	1792.75
611.161	1280.75
611.253	1307.75
611.344	1235.75
611.436	1208.75
611.528	1255.75
611.62	1131.75
611.711	1203.75
611.803	1117.75
611.894	1103.75
611.986	1111.75
612.078	1147.75
612.169	1103.75
612.261	1112.75
612.352	1054.75
612.444	1010.75
612.536	1201.75
612.627	1072.75
612.719	953.75
612.81	953.75
612.902	973.75
612.993	980.75
613.085	983.75
613.176	920.75
613.268	911.75
613.359	870.75
613.451	943.75
613.542	933.75
613.634	856.75
613.725	880.75
613.816	980.75
613.908	806.75
613.999	826.75
614.091	762.75
614.182	709.75
614.273	741.75
614.365	742.75
614.456	633.75
614.547	669.75
614.639	616.75
614.73	629.75
614.821	683.75
614.913	567.75
615.004	569.75
615.095	514.75
615.187	488.75
