Data from 21g_HRC06701__84__328.txt Node

Date: Thu Apr 18 02:09:03 CDT 2024
User: Estudiantes 2
Spectrometer: HR+C0670
Trigger mode: 4
Integration Time (sec): 1.000000E0
Scans to average: 1
Electric dark correction enabled: true
Nonlinearity correction enabled: false
Boxcar width: 0
XAxis mode: Wavelengths
Number of Pixels in Spectrum: 2048
>>>>>Begin Spectral Data<<<<<
407.81	-107.25
407.921	-107.25
408.032	-107.25
408.143	-143.25
408.254	-111.25
408.365	74.75
408.476	241.75
408.587	-30.25
408.699	34.75
408.81	-40.25
408.921	-57.25
409.032	-37.25
409.143	57.75
409.254	14.75
409.365	63.75
409.476	-18.25
409.587	3.75
409.698	53.75
409.809	128.75
409.92	-74.25
410.031	-41.25
410.142	85.75
410.253	6.75
410.364	51.75
410.475	1516.75
410.585	7033.75
410.696	7454.75
410.807	7245.75
410.918	7404.75
411.029	7468.75
411.14	7467.75
411.251	7612.75
411.362	7520.75
411.472	7652.75
411.583	7590.75
411.694	7842.75
411.805	7708.75
411.916	7912.75
412.026	7963.75
412.137	7694.75
412.248	7695.75
412.359	7733.75
412.47	7510.75
412.58	7381.75
412.691	7616.75
412.802	7450.75
412.912	7464.75
413.023	7559.75
413.134	7478.75
413.245	7539.75
413.355	7610.75
413.466	7412.75
413.577	7385.75
413.687	7570.75
413.798	7456.75
413.909	7637.75
414.019	7615.75
414.13	7596.75
414.24	7595.75
414.351	7785.75
414.462	8036.75
414.572	7741.75
414.683	7832.75
414.793	7898.75
414.904	8023.75
415.014	7649.75
415.125	7595.75
415.235	7743.75
415.346	7787.75
415.456	7711.75
415.567	7637.75
415.677	7510.75
415.788	7698.75
415.898	7631.75
416.009	7490.75
416.119	7660.75
416.23	7575.75
416.34	7551.75
416.45	7648.75
416.561	8525.75
416.671	7702.75
416.782	7721.75
416.892	7936.75
417.002	8054.75
417.113	7953.75
417.223	7980.75
417.333	7884.75
417.444	7889.75
417.554	8143.75
417.664	8306.75
417.775	8071.75
417.885	8297.75
417.995	8214.75
418.106	8743.75
418.216	8422.75
418.326	8565.75
418.436	8843.75
418.547	8853.75
418.657	8783.75
418.767	9035.75
418.877	8872.75
418.987	8978.75
419.098	8939.75
419.208	9115.75
419.318	9011.75
419.428	9051.75
419.538	8943.75
419.648	9148.75
419.759	9004.75
419.869	9080.75
419.979	8991.75
420.089	8912.75
420.199	9066.75
420.309	8906.75
420.419	9003.75
420.529	9175.75
420.639	9417.75
420.749	9092.75
420.859	9185.75
420.969	9257.75
421.079	9349.75
421.189	9112.75
421.299	9194.75
421.409	9297.75
421.519	9303.75
421.629	9577.75
421.739	9536.75
421.849	9594.75
421.959	9593.75
422.069	9762.75
422.179	9847.75
422.289	9898.75
422.399	10300.75
422.509	10407.75
422.619	12677.75
422.729	10614.75
422.838	10268.75
422.948	10553.75
423.058	10680.75
423.168	10710.75
423.278	10747.75
423.388	11071.75
423.498	11359.75
423.607	11141.75
423.717	11560.75
423.827	11691.75
423.937	11357.75
424.046	11411.75
424.156	11636.75
424.266	11442.75
424.376	11636.75
424.485	11607.75
424.595	11441.75
424.705	11600.75
424.815	11543.75
424.924	12008.75
425.034	11533.75
425.144	11488.75
425.253	11594.75
425.363	11780.75
425.473	11648.75
425.582	11416.75
425.692	11600.75
425.801	11556.75
425.911	11942.75
426.021	11740.75
426.13	12055.75
426.24	11998.75
426.349	12165.75
426.459	11878.75
426.568	11914.75
426.678	12115.75
426.787	12059.75
426.897	11899.75
427.006	12116.75
427.116	12288.75
427.225	12326.75
427.335	12559.75
427.444	12268.75
427.554	12244.75
427.663	12404.75
427.773	12514.75
427.882	12535.75
427.992	12589.75
428.101	12668.75
428.21	12557.75
428.32	12871.75
428.429	12732.75
428.539	13242.75
428.648	12906.75
428.757	12759.75
428.867	13104.75
428.976	13277.75
429.085	13182.75
429.195	13289.75
429.304	13165.75
429.413	13434.75
429.523	13449.75
429.632	13255.75
429.741	13302.75
429.85	13547.75
429.96	13672.75
430.069	13555.75
430.178	13770.75
430.287	13946.75
430.397	13728.75
430.506	13889.75
430.615	13717.75
430.724	14016.75
430.833	14001.75
430.943	14036.75
431.052	14124.75
431.161	14294.75
431.27	14562.75
431.379	14562.75
431.488	14562.75
431.597	14562.75
431.706	14562.75
431.816	14562.75
431.925	14562.75
432.034	14562.75
432.143	14562.75
432.252	14562.75
432.361	14562.75
432.47	14562.75
432.579	14562.75
432.688	14562.75
432.797	14562.75
432.906	14562.75
433.015	14562.75
433.124	14562.75
433.233	14562.75
433.342	14562.75
433.451	14562.75
433.56	14562.75
433.669	14562.75
433.778	14562.75
433.886	14562.75
433.995	14562.75
434.104	14562.75
434.213	14562.75
434.322	14562.75
434.431	14562.75
434.54	14562.75
434.649	14562.75
434.757	14562.75
434.866	14562.75
434.975	14562.75
435.084	14562.75
435.193	14562.75
435.301	14562.75
435.41	14562.75
435.519	14562.75
435.628	14562.75
435.737	14562.75
435.845	14562.75
435.954	14562.75
436.063	14562.75
436.171	14562.75
436.28	14554.75
436.389	14562.75
436.498	14524.75
436.606	14562.75
436.715	14562.75
436.823	14337.75
436.932	14118.75
437.041	13948.75
437.149	13993.75
437.258	13845.75
437.367	13483.75
437.475	13669.75
437.584	13890.75
437.692	13423.75
437.801	14562.75
437.91	13407.75
438.018	13418.75
438.127	13316.75
438.235	13436.75
438.344	13390.75
438.452	13401.75
438.561	13313.75
438.669	13447.75
438.778	13104.75
438.886	13245.75
438.995	13204.75
439.103	13255.75
439.212	13463.75
439.32	13461.75
439.428	13345.75
439.537	13315.75
439.645	13725.75
439.754	13814.75
439.862	13461.75
439.97	13727.75
440.079	13881.75
440.187	13869.75
440.295	13993.75
440.404	14047.75
440.512	14136.75
440.62	14019.75
440.729	14432.75
440.837	14496.75
440.945	14562.75
441.054	14562.75
441.162	14562.75
441.27	14562.75
441.378	14562.75
441.487	14562.75
441.595	14562.75
441.703	14562.75
441.811	14562.75
441.92	14562.75
442.028	14562.75
442.136	14562.75
442.244	14562.75
442.352	14562.75
442.461	14562.75
442.569	14562.75
442.677	14562.75
442.785	14562.75
442.893	14562.75
443.001	14562.75
443.109	14562.75
443.217	14562.75
443.325	14562.75
443.434	14562.75
443.542	14562.75
443.65	14562.75
443.758	14562.75
443.866	14562.75
443.974	14562.75
444.082	14562.75
444.19	14562.75
444.298	14562.75
444.406	14562.75
444.514	14562.75
444.622	14562.75
444.73	14562.75
444.838	14562.75
444.946	14562.75
445.054	14562.75
445.161	14562.75
445.269	14562.75
445.377	14562.75
445.485	14562.75
445.593	14562.75
445.701	14562.75
445.809	14562.75
445.917	14562.75
446.025	14562.75
446.132	14562.75
446.24	14562.75
446.348	14562.75
446.456	14562.75
446.564	14562.75
446.671	14562.75
446.779	14562.75
446.887	14453.75
446.995	14291.75
447.102	14530.75
447.21	14413.75
447.318	14169.75
447.426	14292.75
447.533	14562.75
447.641	14562.75
447.749	14354.75
447.856	14263.75
447.964	14190.75
448.072	14317.75
448.179	14266.75
448.287	14070.75
448.395	14359.75
448.502	14156.75
448.61	14342.75
448.718	14254.75
448.825	14381.75
448.933	14370.75
449.04	14294.75
449.148	14482.75
449.256	14537.75
449.363	14562.75
449.471	14562.75
449.578	14562.75
449.686	14562.75
449.793	14562.75
449.901	14562.75
450.008	14562.75
450.116	14562.75
450.223	14562.75
450.331	14562.75
450.438	14562.75
450.546	14562.75
450.653	14562.75
450.76	14562.75
450.868	14562.75
450.975	14562.75
451.083	14562.75
451.19	14562.75
451.297	14562.75
451.405	14562.75
451.512	14562.75
451.619	14562.75
451.727	14562.75
451.834	14562.75
451.941	14562.75
452.049	14562.75
452.156	14562.75
452.263	14562.75
452.371	14562.75
452.478	14562.75
452.585	14562.75
452.692	14562.75
452.8	14562.75
452.907	14562.75
453.014	14562.75
453.121	14562.75
453.229	14562.75
453.336	14562.75
453.443	14562.75
453.55	14562.75
453.657	14562.75
453.765	14562.75
453.872	14562.75
453.979	14562.75
454.086	14562.75
454.193	14562.75
454.3	14562.75
454.407	14562.75
454.514	14562.75
454.621	14562.75
454.729	14562.75
454.836	14562.75
454.943	14562.75
455.05	14562.75
455.157	14562.75
455.264	14562.75
455.371	14562.75
455.478	14562.75
455.585	14562.75
455.692	14562.75
455.799	14562.75
455.906	14562.75
456.013	14562.75
456.12	14562.75
456.227	14562.75
456.334	14562.75
456.44	14562.75
456.547	14562.75
456.654	14562.75
456.761	14562.75
456.868	14562.75
456.975	14562.75
457.082	14562.75
457.189	14562.75
457.296	14562.75
457.402	14562.75
457.509	14562.75
457.616	14562.75
457.723	14562.75
457.83	14562.75
457.936	14562.75
458.043	14562.75
458.15	14562.75
458.257	14562.75
458.363	14562.75
458.47	14562.75
458.577	14562.75
458.684	14562.75
458.79	14562.75
458.897	14562.75
459.004	14562.75
459.11	14562.75
459.217	14562.75
459.324	14562.75
459.43	14562.75
459.537	14562.75
459.644	14562.75
459.75	14562.75
459.857	14562.75
459.964	14562.75
460.07	14562.75
460.177	14562.75
460.283	14562.75
460.39	14562.75
460.496	14562.75
460.603	14562.75
460.71	14562.75
460.816	14562.75
460.923	14562.75
461.029	14562.75
461.136	14562.75
461.242	14562.75
461.349	14562.75
461.455	14562.75
461.562	14562.75
461.668	14562.75
461.774	14562.75
461.881	14562.75
461.987	14562.75
462.094	14562.75
462.2	14562.75
462.307	14562.75
462.413	14562.75
462.519	14562.75
462.626	14562.75
462.732	14562.75
462.838	14562.75
462.945	14562.75
463.051	14562.75
463.157	14562.75
463.264	14562.75
463.37	14562.75
463.476	14562.75
463.583	14562.75
463.689	14562.75
463.795	14562.75
463.901	14562.75
464.008	14562.75
464.114	14562.75
464.22	14562.75
464.326	14562.75
464.433	14562.75
464.539	14562.75
464.645	14562.75
464.751	14562.75
464.857	14562.75
464.963	14562.75
465.07	14562.75
465.176	14562.75
465.282	14562.75
465.388	14562.75
465.494	14562.75
465.6	14562.75
465.706	14562.75
465.812	14562.75
465.918	14562.75
466.024	14562.75
466.131	14562.75
466.237	14562.75
466.343	14562.75
466.449	14562.75
466.555	14562.75
466.661	14562.75
466.767	14562.75
466.873	14562.75
466.979	14562.75
467.085	14562.75
467.191	14562.75
467.296	14562.75
467.402	14562.75
467.508	14562.75
467.614	14562.75
467.72	14562.75
467.826	14562.75
467.932	14562.75
468.038	14562.75
468.144	14562.75
468.25	14562.75
468.355	14562.75
468.461	14562.75
468.567	14562.75
468.673	14562.75
468.779	14562.75
468.885	14562.75
468.99	14562.75
469.096	14562.75
469.202	14562.75
469.308	14562.75
469.413	14562.75
469.519	14562.75
469.625	14562.75
469.731	14562.75
469.836	14562.75
469.942	14562.75
470.048	14562.75
470.153	14562.75
470.259	14562.75
470.365	14562.75
470.47	14562.75
470.576	14562.75
470.682	14562.75
470.787	14562.75
470.893	14562.75
470.999	14562.75
471.104	14562.75
471.21	14562.75
471.315	14562.75
471.421	14562.75
471.527	14562.75
471.632	14562.75
471.738	14562.75
471.843	14562.75
471.949	14562.75
472.054	14562.75
472.16	14562.75
472.265	14562.75
472.371	14562.75
472.476	14562.75
472.582	14562.75
472.687	14562.75
472.793	14562.75
472.898	14562.75
473.003	14562.75
473.109	14562.75
473.214	14562.75
473.32	14562.75
473.425	14562.75
473.53	14562.75
473.636	14562.75
473.741	14562.75
473.847	14562.75
473.952	14562.75
474.057	14562.75
474.163	14562.75
474.268	14562.75
474.373	14562.75
474.478	14562.75
474.584	14562.75
474.689	14562.75
474.794	14562.75
474.9	14562.75
475.005	14562.75
475.11	14562.75
475.215	14562.75
475.321	14562.75
475.426	14562.75
475.531	14562.75
475.636	14562.75
475.741	14562.75
475.846	14562.75
475.952	14562.75
476.057	14562.75
476.162	14562.75
476.267	14562.75
476.372	14562.75
476.477	14562.75
476.582	14562.75
476.687	14562.75
476.793	14562.75
476.898	14562.75
477.003	14562.75
477.108	14562.75
477.213	14562.75
477.318	14562.75
477.423	14562.75
477.528	14562.75
477.633	14562.75
477.738	14562.75
477.843	14562.75
477.948	14562.75
478.053	14562.75
478.158	14562.75
478.263	14562.75
478.368	14562.75
478.473	14562.75
478.578	14562.75
478.682	14562.75
478.787	14562.75
478.892	14562.75
478.997	14562.75
479.102	14562.75
479.207	14562.75
479.312	14562.75
479.417	14562.75
479.521	14562.75
479.626	14562.75
479.731	14562.75
479.836	14562.75
479.941	14562.75
480.045	14562.75
480.15	14562.75
480.255	14562.75
480.36	14562.75
480.465	14562.75
480.569	14562.75
480.674	14562.75
480.779	14562.75
480.883	14562.75
480.988	14562.75
481.093	14562.75
481.197	14562.75
481.302	14562.75
481.407	14562.75
481.511	14562.75
481.616	14562.75
481.721	14562.75
481.825	14562.75
481.93	14562.75
482.035	14562.75
482.139	14562.75
482.244	14562.75
482.348	14562.75
482.453	14562.75
482.557	14562.75
482.662	14562.75
482.767	14562.75
482.871	14562.75
482.976	14562.75
483.08	14562.75
483.185	14562.75
483.289	14562.75
483.394	14562.75
483.498	14562.75
483.603	14562.75
483.707	14562.75
483.811	14562.75
483.916	14562.75
484.02	14562.75
484.125	14562.75
484.229	14562.75
484.333	14562.75
484.438	14562.75
484.542	14562.75
484.647	14562.75
484.751	14562.75
484.855	14562.75
484.96	14562.75
485.064	14562.75
485.168	14562.75
485.273	14562.75
485.377	14562.75
485.481	14562.75
485.585	14562.75
485.69	14562.75
485.794	14562.75
485.898	14562.75
486.002	14562.75
486.107	14562.75
486.211	14562.75
486.315	14562.75
486.419	14562.75
486.524	14562.75
486.628	14562.75
486.732	14562.75
486.836	14562.75
486.94	14562.75
487.044	14562.75
487.148	14562.75
487.253	14562.75
487.357	14562.75
487.461	14562.75
487.565	14562.75
487.669	14562.75
487.773	14562.75
487.877	14562.75
487.981	14562.75
488.085	14562.75
488.189	14562.75
488.293	14562.75
488.397	14562.75
488.501	14562.75
488.605	14562.75
488.709	14562.75
488.813	14562.75
488.917	14562.75
489.021	14562.75
489.125	14562.75
489.229	14562.75
489.333	14562.75
489.437	14562.75
489.541	14562.75
489.645	14562.75
489.749	14562.75
489.853	14562.75
489.956	14562.75
490.06	14562.75
490.164	14562.75
490.268	14562.75
490.372	14562.75
490.476	14562.75
490.579	14562.75
490.683	14562.75
490.787	14562.75
490.891	14562.75
490.995	14562.75
491.098	14562.75
491.202	14562.75
491.306	14562.75
491.41	14562.75
491.513	14562.75
491.617	14562.75
491.721	14562.75
491.824	14562.75
491.928	14562.75
492.032	14562.75
492.136	14562.75
492.239	14562.75
492.343	14562.75
492.446	14562.75
492.55	14562.75
492.654	14562.75
492.757	14562.75
492.861	14562.75
492.965	14562.75
493.068	14562.75
493.172	14562.75
493.275	14562.75
493.379	14562.75
493.482	14562.75
493.586	14562.75
493.689	14562.75
493.793	14562.75
493.896	14562.75
494	14562.75
494.103	14562.75
494.207	14562.75
494.31	14562.75
494.414	14562.75
494.517	14562.75
494.621	14562.75
494.724	14562.75
494.828	14562.75
494.931	14562.75
495.034	14562.75
495.138	14562.75
495.241	14562.75
495.345	14562.75
495.448	14562.75
495.551	14562.75
495.655	14562.75
495.758	14562.75
495.861	14562.75
495.965	14562.75
496.068	14562.75
496.171	14562.75
496.274	14562.75
496.378	14562.75
496.481	14562.75
496.584	14562.75
496.687	14562.75
496.791	14562.75
496.894	14562.75
496.997	14562.75
497.1	14562.75
497.204	14562.75
497.307	14562.75
497.41	14562.75
497.513	14562.75
497.616	14562.75
497.719	14562.75
497.823	14562.75
497.926	14562.75
498.029	14562.75
498.132	14562.75
498.235	14562.75
498.338	14562.75
498.441	14562.75
498.544	14562.75
498.647	14562.75
498.75	14562.75
498.853	14562.75
498.956	14562.75
499.059	14562.75
499.163	14562.75
499.266	14562.75
499.369	14562.75
499.471	14562.75
499.574	14562.75
499.677	14562.75
499.78	14562.75
499.883	14562.75
499.986	14562.75
500.089	14562.75
500.192	14562.75
500.295	14562.75
500.398	14562.75
500.501	14562.75
500.604	14562.75
500.707	14562.75
500.809	14562.75
500.912	14562.75
501.015	14562.75
501.118	14562.75
501.221	14562.75
501.324	14562.75
501.426	14562.75
501.529	14562.75
501.632	14562.75
501.735	14562.75
501.837	14562.75
501.94	14562.75
502.043	14562.75
502.146	14562.75
502.248	14562.75
502.351	14562.75
502.454	14562.75
502.557	14562.75
502.659	14562.75
502.762	14562.75
502.865	14562.75
502.967	14562.75
503.07	14562.75
503.173	14562.75
503.275	14562.75
503.378	14562.75
503.48	14562.75
503.583	14562.75
503.686	14562.75
503.788	14562.75
503.891	14562.75
503.993	14562.75
504.096	14562.75
504.198	14562.75
504.301	14562.75
504.403	14562.75
504.506	14562.75
504.608	14562.75
504.711	14562.75
504.813	14562.75
504.916	14562.75
505.018	14562.75
505.121	14562.75
505.223	14562.75
505.326	14562.75
505.428	14562.75
505.531	14562.75
505.633	14562.75
505.735	14562.75
505.838	14562.75
505.94	14562.75
506.042	14562.75
506.145	14562.75
506.247	14562.75
506.35	14562.75
506.452	14562.75
506.554	14562.75
506.656	14562.75
506.759	14562.75
506.861	14562.75
506.963	14562.75
507.066	14562.75
507.168	14562.75
507.27	14562.75
507.372	14562.75
507.475	14562.75
507.577	14562.75
507.679	14562.75
507.781	14562.75
507.883	14562.75
507.986	14562.75
508.088	14562.75
508.19	14562.75
508.292	14562.75
508.394	14562.75
508.496	14562.75
508.598	14562.75
508.701	14562.75
508.803	14562.75
508.905	14562.75
509.007	14562.75
509.109	14562.75
509.211	14562.75
509.313	14562.75
509.415	14562.75
509.517	14562.75
509.619	14562.75
509.721	14562.75
509.823	14562.75
509.925	14562.75
510.027	14562.75
510.129	14562.75
510.231	14562.75
510.333	14562.75
510.435	14562.75
510.537	14562.75
510.639	14562.75
510.741	14562.75
510.843	14562.75
510.945	14562.75
511.047	14562.75
511.148	14562.75
511.25	14562.75
511.352	14562.75
511.454	14562.75
511.556	14562.75
511.658	14562.75
511.76	14562.75
511.861	14562.75
511.963	14562.75
512.065	14562.75
512.167	14562.75
512.268	14562.75
512.37	14562.75
512.472	14562.75
512.574	14562.75
512.676	14562.75
512.777	14562.75
512.879	14562.75
512.981	14562.75
513.082	14562.75
513.184	14562.75
513.286	14562.75
513.387	14562.75
513.489	14562.75
513.591	14562.75
513.692	14562.75
513.794	14562.75
513.896	14562.75
513.997	14562.75
514.099	14562.75
514.2	14562.75
514.302	14562.75
514.404	14562.75
514.505	14562.75
514.607	14562.75
514.708	14562.75
514.81	14562.75
514.911	14562.75
515.013	14562.75
515.114	14562.75
515.216	14562.75
515.317	14562.75
515.419	14562.75
515.52	14562.75
515.622	14562.75
515.723	14562.75
515.825	14562.75
515.926	14562.75
516.027	14562.75
516.129	14562.75
516.23	14562.75
516.332	14562.75
516.433	14562.75
516.534	14562.75
516.636	14562.75
516.737	14562.75
516.838	14562.75
516.94	14562.75
517.041	14562.75
517.142	14562.75
517.244	14562.75
517.345	14562.75
517.446	14562.75
517.547	14562.75
517.649	14562.75
517.75	14562.75
517.851	14562.75
517.952	14562.75
518.054	14562.75
518.155	14562.75
518.256	14562.75
518.357	14562.75
518.458	14562.75
518.56	14562.75
518.661	14562.75
518.762	14562.75
518.863	14562.75
518.964	14562.75
519.065	14562.75
519.166	14562.75
519.268	14562.75
519.369	14562.75
519.47	14562.75
519.571	14562.75
519.672	14562.75
519.773	14562.75
519.874	14562.75
519.975	14562.75
520.076	14562.75
520.177	14562.75
520.278	14562.75
520.379	14562.75
520.48	14562.75
520.581	14562.75
520.682	14562.75
520.783	14562.75
520.884	14562.75
520.985	14562.75
521.086	14562.75
521.187	14562.75
521.288	14562.75
521.389	14562.75
521.489	14562.75
521.59	14562.75
521.691	14562.75
521.792	14562.75
521.893	14562.75
521.994	14562.75
522.095	14562.75
522.195	14562.75
522.296	14562.75
522.397	14562.75
522.498	14562.75
522.599	14562.75
522.699	14562.75
522.8	14562.75
522.901	14562.75
523.002	14562.75
523.102	14562.75
523.203	14562.75
523.304	14562.75
523.405	14562.75
523.505	14562.75
523.606	14562.75
523.707	14562.75
523.807	14562.75
523.908	14562.75
524.009	14562.75
524.109	14562.75
524.21	14562.75
524.31	14562.75
524.411	14562.75
524.512	14562.75
524.612	14562.75
524.713	14562.75
524.813	14562.75
524.914	14562.75
525.014	14562.75
525.115	14562.75
525.216	14562.75
525.316	14562.75
525.417	14562.75
525.517	14562.75
525.618	14562.75
525.718	14562.75
525.819	14562.75
525.919	14562.75
526.019	14562.75
526.12	14562.75
526.22	14562.75
526.321	14562.75
526.421	14562.75
526.522	14562.75
526.622	14562.75
526.722	14562.75
526.823	14562.75
526.923	14562.75
527.023	14562.75
527.124	14562.75
527.224	14562.75
527.324	14562.75
527.425	14562.75
527.525	14562.75
527.625	14562.75
527.726	14562.75
527.826	14562.75
527.926	14562.75
528.026	14562.75
528.127	14562.75
528.227	14562.75
528.327	14562.75
528.427	14562.75
528.528	14562.75
528.628	14562.75
528.728	14562.75
528.828	14562.75
528.928	14562.75
529.029	14562.75
529.129	14562.75
529.229	14562.75
529.329	14562.75
529.429	14562.75
529.529	14562.75
529.629	14562.75
529.729	14562.75
529.829	14562.75
529.93	14562.75
530.03	14562.75
530.13	14562.75
530.23	14562.75
530.33	14562.75
530.43	14562.75
530.53	14562.75
530.63	14562.75
530.73	14562.75
530.83	14562.75
530.93	14562.75
531.03	14562.75
531.13	14562.75
531.23	14562.75
531.33	14562.75
531.429	14562.75
531.529	14562.75
531.629	14562.75
531.729	14562.75
531.829	14562.75
531.929	14562.75
532.029	14562.75
532.129	14562.75
532.229	14562.75
532.328	14562.75
532.428	14562.75
532.528	14562.75
532.628	14562.75
532.728	14562.75
532.827	14562.75
532.927	14562.75
533.027	14562.75
533.127	14562.75
533.227	14562.75
533.326	14562.75
533.426	14562.75
533.526	14562.75
533.625	14562.75
533.725	14562.75
533.825	14562.75
533.924	14562.75
534.024	14562.75
534.124	14562.75
534.223	14562.75
534.323	14562.75
534.423	14562.75
534.522	14562.75
534.622	14562.75
534.722	14562.75
534.821	14562.75
534.921	14562.75
535.02	14562.75
535.12	14562.75
535.219	14562.75
535.319	14562.75
535.419	14562.75
535.518	14562.75
535.618	14562.75
535.717	14562.75
535.817	14562.75
535.916	14562.75
536.016	14562.75
536.115	14562.75
536.215	14562.75
536.314	14562.75
536.413	14562.75
536.513	14562.75
536.612	14562.75
536.712	14562.75
536.811	14562.75
536.91	14562.75
537.01	14562.75
537.109	14562.75
537.209	14562.75
537.308	14562.75
537.407	14562.75
537.507	14562.75
537.606	14562.75
537.705	14562.75
537.805	14562.75
537.904	14477.75
538.003	14493.75
538.102	14562.75
538.202	14445.75
538.301	14520.75
538.4	14262.75
538.499	14420.75
538.599	14301.75
538.698	14482.75
538.797	14066.75
538.896	14229.75
538.995	14214.75
539.095	14003.75
539.194	14275.75
539.293	14028.75
539.392	13949.75
539.491	13921.75
539.59	14068.75
539.689	14099.75
539.789	13881.75
539.888	13668.75
539.987	13628.75
540.086	13573.75
540.185	13553.75
540.284	13772.75
540.383	13530.75
540.482	13375.75
540.581	13493.75
540.68	13372.75
540.779	13560.75
540.878	13407.75
540.977	13485.75
541.076	13417.75
541.175	13468.75
541.274	13520.75
541.373	13337.75
541.472	13167.75
541.571	13014.75
541.67	14562.75
541.769	13287.75
541.868	13263.75
541.966	13240.75
542.065	12978.75
542.164	13093.75
542.263	12810.75
542.362	12949.75
542.461	13074.75
542.56	13026.75
542.658	12902.75
542.757	12980.75
542.856	12920.75
542.955	12954.75
543.054	12960.75
543.152	13189.75
543.251	12782.75
543.35	13008.75
543.449	13015.75
543.547	12815.75
543.646	12745.75
543.745	12844.75
543.843	12925.75
543.942	12890.75
544.041	12872.75
544.14	12950.75
544.238	12789.75
544.337	13131.75
544.436	13100.75
544.534	13147.75
544.633	13039.75
544.731	13035.75
544.83	13040.75
544.929	12991.75
545.027	13253.75
545.126	13056.75
545.224	13165.75
545.323	13178.75
545.421	13365.75
545.52	13113.75
545.619	13142.75
545.717	13154.75
545.816	13211.75
545.914	13196.75
546.013	13265.75
546.111	13396.75
546.209	13177.75
546.308	13001.75
546.406	12985.75
546.505	13094.75
546.603	13185.75
546.702	12976.75
546.8	12897.75
546.899	12984.75
546.997	13056.75
547.095	12948.75
547.194	13059.75
547.292	13076.75
547.39	13152.75
547.489	13152.75
547.587	13465.75
547.685	12985.75
547.784	13417.75
547.882	13385.75
547.98	13223.75
548.079	13297.75
548.177	13228.75
548.275	13092.75
548.373	13272.75
548.472	12977.75
548.57	13139.75
548.668	13175.75
548.766	13060.75
548.864	13311.75
548.963	13287.75
549.061	13362.75
549.159	13245.75
549.257	13567.75
549.355	13358.75
549.454	13490.75
549.552	13705.75
549.65	13497.75
549.748	13521.75
549.846	13508.75
549.944	13253.75
550.042	13152.75
550.14	13222.75
550.238	13069.75
550.336	13097.75
550.434	12904.75
550.532	13004.75
550.631	13041.75
550.729	12951.75
550.827	13033.75
550.925	12757.75
551.023	12839.75
551.121	12985.75
551.218	12959.75
551.316	12669.75
551.414	13071.75
551.512	12845.75
551.61	13016.75
551.708	13343.75
551.806	13228.75
551.904	13210.75
552.002	13598.75
552.1	13646.75
552.198	13715.75
552.296	13989.75
552.393	14130.75
552.491	14478.75
552.589	14364.75
552.687	14509.75
552.785	14562.75
552.882	14562.75
552.98	14562.75
553.078	14562.75
553.176	14562.75
553.274	14562.75
553.371	14562.75
553.469	14562.75
553.567	14562.75
553.665	14562.75
553.762	14562.75
553.86	14400.75
553.958	14164.75
554.055	13947.75
554.153	14065.75
554.251	13622.75
554.348	13670.75
554.446	13415.75
554.544	13354.75
554.641	13676.75
554.739	13162.75
554.837	13072.75
554.934	13212.75
555.032	12892.75
555.129	12821.75
555.227	13050.75
555.324	14562.75
555.422	12872.75
555.519	12569.75
555.617	12321.75
555.715	12296.75
555.812	12699.75
555.91	12228.75
556.007	12295.75
556.105	11965.75
556.202	12218.75
556.299	11851.75
556.397	12017.75
556.494	12088.75
556.592	11937.75
556.689	12016.75
556.787	11848.75
556.884	11796.75
556.981	11910.75
557.079	11734.75
557.176	11885.75
557.273	11787.75
557.371	11851.75
557.468	11751.75
557.566	11750.75
557.663	11730.75
557.76	11907.75
557.857	11843.75
557.955	11784.75
558.052	11848.75
558.149	11985.75
558.247	12071.75
558.344	11890.75
558.441	11752.75
558.538	11740.75
558.636	11773.75
558.733	11838.75
558.83	11820.75
558.927	11838.75
559.024	11836.75
559.122	11845.75
559.219	11725.75
559.316	11931.75
559.413	12058.75
559.51	11754.75
559.607	11831.75
559.704	11984.75
559.801	11951.75
559.899	11970.75
559.996	12264.75
560.093	11956.75
560.19	11921.75
560.287	12060.75
560.384	12248.75
560.481	12013.75
560.578	11897.75
560.675	11875.75
560.772	12109.75
560.869	12149.75
560.966	12374.75
561.063	12117.75
561.16	12307.75
561.257	12201.75
561.354	12182.75
561.451	12221.75
561.548	12371.75
561.645	12532.75
561.742	12216.75
561.838	12391.75
561.935	12485.75
562.032	12358.75
562.129	12367.75
562.226	12532.75
562.323	12419.75
562.42	12542.75
562.516	12583.75
562.613	12559.75
562.71	12593.75
562.807	13544.75
562.904	12704.75
563	12801.75
563.097	12774.75
563.194	13007.75
563.291	12902.75
563.387	13153.75
563.484	13185.75
563.581	13286.75
563.678	13038.75
563.774	13864.75
563.871	13463.75
563.968	13461.75
564.064	13688.75
564.161	13673.75
564.258	13739.75
564.354	13825.75
564.451	14176.75
564.548	14288.75
564.644	14284.75
564.741	14548.75
564.837	14562.75
564.934	14562.75
565.031	14562.75
565.127	14562.75
565.224	14562.75
565.32	14562.75
565.417	14562.75
565.513	14562.75
565.61	14562.75
565.706	14562.75
565.803	14562.75
565.899	14562.75
565.996	14562.75
566.092	14562.75
566.189	14562.75
566.285	14562.75
566.382	14562.75
566.478	14562.75
566.574	14562.75
566.671	14562.75
566.767	14562.75
566.864	14562.75
566.96	14562.75
567.056	14562.75
567.153	14562.75
567.249	14562.75
567.345	14562.75
567.442	14562.75
567.538	14562.75
567.634	14562.75
567.731	14562.75
567.827	14562.75
567.923	14562.75
568.019	14562.75
568.116	14562.75
568.212	14562.75
568.308	14562.75
568.404	14562.75
568.501	14562.75
568.597	14562.75
568.693	14562.75
568.789	14562.75
568.885	14562.75
568.982	14562.75
569.078	14562.75
569.174	14562.75
569.27	14562.75
569.366	14562.75
569.462	14562.75
569.558	14562.75
569.655	14562.75
569.751	14562.75
569.847	14562.75
569.943	14562.75
570.039	14552.75
570.135	14562.75
570.231	14481.75
570.327	14562.75
570.423	14562.75
570.519	14562.75
570.615	14486.75
570.711	14562.75
570.807	14562.75
570.903	14562.75
570.999	14562.75
571.095	14462.75
571.191	14172.75
571.287	14071.75
571.383	13652.75
571.479	13499.75
571.574	13407.75
571.67	13040.75
571.766	13125.75
571.862	12793.75
571.958	12580.75
572.054	12520.75
572.15	12335.75
572.246	12189.75
572.341	12432.75
572.437	11853.75
572.533	12120.75
572.629	11803.75
572.725	11848.75
572.82	11975.75
572.916	11945.75
573.012	11709.75
573.108	11784.75
573.203	11563.75
573.299	11493.75
573.395	11586.75
573.49	11446.75
573.586	11280.75
573.682	11371.75
573.778	11516.75
573.873	11173.75
573.969	11247.75
574.065	11236.75
574.16	11196.75
574.256	11183.75
574.351	11121.75
574.447	11197.75
574.543	11112.75
574.638	11255.75
574.734	11167.75
574.829	11212.75
574.925	11033.75
575.02	10831.75
575.116	10704.75
575.212	10639.75
575.307	10723.75
575.403	10465.75
575.498	10507.75
575.594	10492.75
575.689	10460.75
575.784	10557.75
575.88	10345.75
575.975	10408.75
576.071	10201.75
576.166	10118.75
576.262	10064.75
576.357	10035.75
576.452	10325.75
576.548	10173.75
576.643	9994.75
576.739	9962.75
576.834	9847.75
576.929	9876.75
577.025	10181.75
577.12	9717.75
577.215	9640.75
577.311	9792.75
577.406	9766.75
577.501	9853.75
577.597	9429.75
577.692	9584.75
577.787	9471.75
577.882	9450.75
577.978	9280.75
578.073	9277.75
578.168	9169.75
578.263	9206.75
578.358	9177.75
578.454	9034.75
578.549	9091.75
578.644	9011.75
578.739	9118.75
578.834	8971.75
578.929	8921.75
579.025	8935.75
579.12	8884.75
579.215	9179.75
579.31	9074.75
579.405	8741.75
579.5	8783.75
579.595	8811.75
579.69	8500.75
579.785	8558.75
579.88	8652.75
579.975	8621.75
580.07	8491.75
580.165	8522.75
580.26	8644.75
580.355	8507.75
580.45	8327.75
580.545	8313.75
580.64	8394.75
580.735	8356.75
580.83	8239.75
580.925	8095.75
581.02	8168.75
581.115	8040.75
581.21	8205.75
581.305	8132.75
581.4	8107.75
581.495	8016.75
581.589	7965.75
581.684	7915.75
581.779	8105.75
581.874	7986.75
581.969	8078.75
582.064	7867.75
582.158	7876.75
582.253	7953.75
582.348	7836.75
582.443	7898.75
582.537	7758.75
582.632	8033.75
582.727	7885.75
582.822	7658.75
582.916	7623.75
583.011	7696.75
583.106	7752.75
583.201	7553.75
583.295	7686.75
583.39	7600.75
583.485	7502.75
583.579	9582.75
583.674	7780.75
583.769	7709.75
583.863	7452.75
583.958	7412.75
584.052	7414.75
584.147	7376.75
584.242	7301.75
584.336	7285.75
584.431	7480.75
584.525	7368.75
584.62	7558.75
584.714	7349.75
584.809	7351.75
584.903	7452.75
584.998	7372.75
585.092	7239.75
585.187	7370.75
585.281	7180.75
585.376	7284.75
585.47	7169.75
585.565	7073.75
585.659	7027.75
585.754	7039.75
585.848	7187.75
585.942	7073.75
586.037	7084.75
586.131	8378.75
586.226	7085.75
586.32	7046.75
586.414	7029.75
586.509	7090.75
586.603	6971.75
586.697	7038.75
586.792	6822.75
586.886	6771.75
586.98	7018.75
587.075	6974.75
587.169	6852.75
587.263	7053.75
587.357	6903.75
587.452	6775.75
587.546	6924.75
587.64	6906.75
587.734	6806.75
587.829	6797.75
587.923	6925.75
588.017	6826.75
588.111	6904.75
588.205	7098.75
588.3	7057.75
588.394	7039.75
588.488	7274.75
588.582	7666.75
588.676	8360.75
588.77	12312.75
588.864	14562.75
588.958	14562.75
589.052	14562.75
589.147	11848.75
589.241	9509.75
589.335	9631.75
589.429	14562.75
589.523	14562.75
589.617	14562.75
589.711	11425.75
589.805	8684.75
589.899	7749.75
589.993	7232.75
590.087	7088.75
590.181	6959.75
590.275	6954.75
590.369	6812.75
590.462	6812.75
590.556	6791.75
590.65	6782.75
590.744	6890.75
590.838	6742.75
590.932	6867.75
591.026	6898.75
591.12	6958.75
591.214	6742.75
591.307	6911.75
591.401	6987.75
591.495	6935.75
591.589	6941.75
591.683	7022.75
591.777	7192.75
591.87	7471.75
591.964	7338.75
592.058	7212.75
592.152	7423.75
592.245	7498.75
592.339	7537.75
592.433	7808.75
592.527	7738.75
592.62	7932.75
592.714	8015.75
592.808	8193.75
592.901	8241.75
592.995	8184.75
593.089	8568.75
593.182	8366.75
593.276	8270.75
593.37	8225.75
593.463	8336.75
593.557	8386.75
593.65	8374.75
593.744	8461.75
593.837	8555.75
593.931	8448.75
594.025	12220.75
594.118	8748.75
594.212	8267.75
594.305	8089.75
594.399	8199.75
594.492	8155.75
594.586	7753.75
594.679	7635.75
594.773	7425.75
594.866	7338.75
594.96	7411.75
595.053	7100.75
595.146	6973.75
595.24	6988.75
595.333	6770.75
595.427	6511.75
595.52	6375.75
595.614	6596.75
595.707	6385.75
595.8	6220.75
595.894	6217.75
595.987	5979.75
596.08	6008.75
596.174	6358.75
596.267	6054.75
596.36	5922.75
596.454	5979.75
596.547	5742.75
596.64	5609.75
596.733	5579.75
596.827	5688.75
596.92	5649.75
597.013	5406.75
597.106	5490.75
597.2	5399.75
597.293	5412.75
597.386	5685.75
597.479	5416.75
597.572	5393.75
597.666	5346.75
597.759	5382.75
597.852	5473.75
597.945	5180.75
598.038	5271.75
598.131	5186.75
598.224	5108.75
598.317	5308.75
598.411	5156.75
598.504	4994.75
598.597	5191.75
598.69	5092.75
598.783	5047.75
598.876	5207.75
598.969	5162.75
599.062	4970.75
599.155	5096.75
599.248	4993.75
599.341	5029.75
599.434	4973.75
599.527	5032.75
599.62	5017.75
599.713	4980.75
599.806	4986.75
599.899	5054.75
599.991	4920.75
600.084	5215.75
600.177	4906.75
600.27	4850.75
600.363	5068.75
600.456	4887.75
600.549	4823.75
600.642	4802.75
600.734	4892.75
600.827	4831.75
600.92	4966.75
601.013	4885.75
601.106	4904.75
601.199	4669.75
601.291	4729.75
601.384	4813.75
601.477	4970.75
601.57	4862.75
601.662	4806.75
601.755	4712.75
601.848	4740.75
601.94	4606.75
602.033	4883.75
602.126	4670.75
602.219	4737.75
602.311	4802.75
602.404	4704.75
602.497	4671.75
602.589	4712.75
602.682	4728.75
602.774	4537.75
602.867	4659.75
602.96	4518.75
603.052	4621.75
603.145	4633.75
603.237	4609.75
603.33	4652.75
603.422	4685.75
603.515	4542.75
603.608	4607.75
603.7	4602.75
603.793	4492.75
603.885	4547.75
603.978	4573.75
604.07	4503.75
604.163	4491.75
604.255	4544.75
604.347	4493.75
604.44	4381.75
604.532	4569.75
604.625	4528.75
604.717	4449.75
604.81	4590.75
604.902	4480.75
604.994	4407.75
605.087	4443.75
605.179	4382.75
605.271	4475.75
605.364	4397.75
605.456	4479.75
605.548	4553.75
605.641	4447.75
605.733	4458.75
605.825	4422.75
605.918	4338.75
606.01	4535.75
606.102	4788.75
606.194	4446.75
606.287	4566.75
606.379	4328.75
606.471	4425.75
606.563	4440.75
606.655	4391.75
606.748	4405.75
606.84	4305.75
606.932	4384.75
607.024	4333.75
607.116	4263.75
607.208	4283.75
607.301	4421.75
607.393	4362.75
607.485	4271.75
607.577	4244.75
607.669	4461.75
607.761	4321.75
607.853	4637.75
607.945	4244.75
608.037	4218.75
608.129	4251.75
608.221	4282.75
608.313	4218.75
608.405	4354.75
608.497	4223.75
608.589	4219.75
608.681	4212.75
608.773	4345.75
608.865	4327.75
608.957	4180.75
609.049	4262.75
609.141	4303.75
609.233	4215.75
609.325	4194.75
609.417	4189.75
609.509	4287.75
609.601	4428.75
609.693	4455.75
609.784	4256.75
609.876	4275.75
609.968	4253.75
610.06	6581.75
610.152	4421.75
610.244	4470.75
610.335	4161.75
610.427	4074.75
610.519	4147.75
610.611	4151.75
610.702	4027.75
610.794	4040.75
610.886	4108.75
610.978	4052.75
611.069	4445.75
611.161	3948.75
611.253	4020.75
611.344	3821.75
611.436	3763.75
611.528	3782.75
611.62	3612.75
611.711	3632.75
611.803	3566.75
611.894	3505.75
611.986	3465.75
612.078	3519.75
612.169	3461.75
612.261	3387.75
612.352	3302.75
612.444	3273.75
612.536	3418.75
612.627	3304.75
612.719	3145.75
612.81	3032.75
612.902	3006.75
612.993	3120.75
613.085	2954.75
613.176	2880.75
613.268	2876.75
613.359	2901.75
613.451	2792.75
613.542	2817.75
613.634	2734.75
613.725	2727.75
613.816	2704.75
613.908	2551.75
613.999	2486.75
614.091	2315.75
614.182	2407.75
614.273	2397.75
614.365	2222.75
614.456	2187.75
614.547	2207.75
614.639	2073.75
614.73	2106.75
614.821	2141.75
614.913	1940.75
615.004	1913.75
615.095	1862.75
615.187	1819.75
