Data from 7g_HRC06701__28__150.txt Node

Date: Thu Apr 18 01:50:17 CDT 2024
User: Estudiantes 2
Spectrometer: HR+C0670
Trigger mode: 4
Integration Time (sec): 1.000000E0
Scans to average: 1
Electric dark correction enabled: true
Nonlinearity correction enabled: false
Boxcar width: 0
XAxis mode: Wavelengths
Number of Pixels in Spectrum: 2048
>>>>>Begin Spectral Data<<<<<
407.81	-115.12
407.921	-115.12
408.032	-115.12
408.143	-109.12
408.254	-133.12
408.365	6.88
408.476	237.88
408.587	-34.12
408.699	-23.12
408.81	40.88
408.921	-68.12
409.032	-39.12
409.143	67.88
409.254	-5.12
409.365	75.88
409.476	14.88
409.587	20.88
409.698	61.88
409.809	82.88
409.92	7.88
410.031	-43.12
410.142	40.88
410.253	5.88
410.364	-20.12
410.475	97.88
410.585	693.88
410.696	690.88
410.807	694.88
410.918	721.88
411.029	780.88
411.14	735.88
411.251	698.88
411.362	795.88
411.472	732.88
411.583	761.88
411.694	830.88
411.805	731.88
411.916	740.88
412.026	855.88
412.137	751.88
412.248	753.88
412.359	745.88
412.47	705.88
412.58	660.88
412.691	793.88
412.802	784.88
412.912	747.88
413.023	753.88
413.134	785.88
413.245	792.88
413.355	731.88
413.466	759.88
413.577	755.88
413.687	760.88
413.798	688.88
413.909	781.88
414.019	729.88
414.13	769.88
414.24	702.88
414.351	808.88
414.462	842.88
414.572	852.88
414.683	802.88
414.793	717.88
414.904	1100.88
415.014	736.88
415.125	688.88
415.235	802.88
415.346	833.88
415.456	869.88
415.567	766.88
415.677	789.88
415.788	785.88
415.898	696.88
416.009	763.88
416.119	726.88
416.23	692.88
416.34	756.88
416.45	710.88
416.561	1350.88
416.671	883.88
416.782	659.88
416.892	680.88
417.002	777.88
417.113	782.88
417.223	766.88
417.333	736.88
417.444	810.88
417.554	783.88
417.664	803.88
417.775	765.88
417.885	735.88
417.995	794.88
418.106	904.88
418.216	773.88
418.326	788.88
418.436	849.88
418.547	762.88
418.657	742.88
418.767	908.88
418.877	831.88
418.987	790.88
419.098	784.88
419.208	848.88
419.318	890.88
419.428	887.88
419.538	865.88
419.648	850.88
419.759	878.88
419.869	878.88
419.979	824.88
420.089	799.88
420.199	778.88
420.309	929.88
420.419	858.88
420.529	820.88
420.639	1303.88
420.749	869.88
420.859	951.88
420.969	879.88
421.079	1023.88
421.189	915.88
421.299	909.88
421.409	834.88
421.519	942.88
421.629	917.88
421.739	906.88
421.849	805.88
421.959	797.88
422.069	954.88
422.179	809.88
422.289	813.88
422.399	966.88
422.509	951.88
422.619	4019.88
422.729	1257.88
422.838	857.88
422.948	906.88
423.058	876.88
423.168	1002.88
423.278	947.88
423.388	956.88
423.498	1036.88
423.607	945.88
423.717	1179.88
423.827	1252.88
423.937	997.88
424.046	1047.88
424.156	1076.88
424.266	993.88
424.376	1172.88
424.485	1145.88
424.595	1059.88
424.705	998.88
424.815	1059.88
424.924	1484.88
425.034	1109.88
425.144	1036.88
425.253	1109.88
425.363	1065.88
425.473	1126.88
425.582	1051.88
425.692	1085.88
425.801	1049.88
425.911	1232.88
426.021	1149.88
426.13	1191.88
426.24	1352.88
426.349	1247.88
426.459	1167.88
426.568	1152.88
426.678	1297.88
426.787	1140.88
426.897	1100.88
427.006	1216.88
427.116	1189.88
427.225	1186.88
427.335	1268.88
427.444	1252.88
427.554	1239.88
427.663	1199.88
427.773	1232.88
427.882	1291.88
427.992	1207.88
428.101	1254.88
428.21	1227.88
428.32	1241.88
428.429	1188.88
428.539	1458.88
428.648	1228.88
428.757	1289.88
428.867	1336.88
428.976	1434.88
429.085	1320.88
429.195	1364.88
429.304	1285.88
429.413	1326.88
429.523	1377.88
429.632	1323.88
429.741	1344.88
429.85	1321.88
429.96	1345.88
430.069	1293.88
430.178	1322.88
430.287	1585.88
430.397	1338.88
430.506	1321.88
430.615	1354.88
430.724	1372.88
430.833	1392.88
430.943	1418.88
431.052	1391.88
431.161	1356.88
431.27	1422.88
431.379	1369.88
431.488	1526.88
431.597	1480.88
431.706	1454.88
431.816	1396.88
431.925	1429.88
432.034	1411.88
432.143	1468.88
432.252	1401.88
432.361	1531.88
432.47	1452.88
432.579	1426.88
432.688	1464.88
432.797	1462.88
432.906	1356.88
433.015	1552.88
433.124	1795.88
433.233	1454.88
433.342	1461.88
433.451	1500.88
433.56	1484.88
433.669	1406.88
433.778	1506.88
433.886	1482.88
433.995	1493.88
434.104	1631.88
434.213	1515.88
434.322	1445.88
434.431	1641.88
434.54	1536.88
434.649	1632.88
434.757	1566.88
434.866	1532.88
434.975	1572.88
435.084	1573.88
435.193	1562.88
435.301	1718.88
435.41	1749.88
435.519	1928.88
435.628	1451.88
435.737	1407.88
435.845	1453.88
435.954	1367.88
436.063	1398.88
436.171	1345.88
436.28	1419.88
436.389	1445.88
436.498	1366.88
436.606	1407.88
436.715	1491.88
436.823	1372.88
436.932	1408.88
437.041	1362.88
437.149	1370.88
437.258	1350.88
437.367	1268.88
437.475	1287.88
437.584	1545.88
437.692	1324.88
437.801	2659.88
437.91	1420.88
438.018	1288.88
438.127	1226.88
438.235	1329.88
438.344	1344.88
438.452	1310.88
438.561	1250.88
438.669	1318.88
438.778	1216.88
438.886	1267.88
438.995	1227.88
439.103	1286.88
439.212	1228.88
439.32	1243.88
439.428	1276.88
439.537	1247.88
439.645	1336.88
439.754	1291.88
439.862	1251.88
439.97	1245.88
440.079	1275.88
440.187	1255.88
440.295	1366.88
440.404	1364.88
440.512	1334.88
440.62	1335.88
440.729	1346.88
440.837	1425.88
440.945	1906.88
441.054	1409.88
441.162	1298.88
441.27	1389.88
441.378	1332.88
441.487	1372.88
441.595	1629.88
441.703	1424.88
441.811	1408.88
441.92	1328.88
442.028	1316.88
442.136	1312.88
442.244	1384.88
442.352	1344.88
442.461	1212.88
442.569	1301.88
442.677	1269.88
442.785	1343.88
442.893	1327.88
443.001	1230.88
443.109	1224.88
443.217	1285.88
443.325	1249.88
443.434	1734.88
443.542	1557.88
443.65	1369.88
443.758	1479.88
443.866	1351.88
443.974	1601.88
444.082	1399.88
444.19	1414.88
444.298	1485.88
444.406	1433.88
444.514	1491.88
444.622	1559.88
444.73	1481.88
444.838	1435.88
444.946	1501.88
445.054	1409.88
445.161	1375.88
445.269	1347.88
445.377	1444.88
445.485	1440.88
445.593	1403.88
445.701	1618.88
445.809	1474.88
445.917	1431.88
446.025	1346.88
446.132	1510.88
446.24	1428.88
446.348	1375.88
446.456	1322.88
446.564	1335.88
446.671	1421.88
446.779	1377.88
446.887	1353.88
446.995	1364.88
447.102	1418.88
447.21	1349.88
447.318	1324.88
447.426	1365.88
447.533	1554.88
447.641	2485.88
447.749	1508.88
447.856	1376.88
447.964	1404.88
448.072	1458.88
448.179	1419.88
448.287	1455.88
448.395	1454.88
448.502	1402.88
448.61	1360.88
448.718	1344.88
448.825	1500.88
448.933	1386.88
449.04	1350.88
449.148	1432.88
449.256	1427.88
449.363	1444.88
449.471	1428.88
449.578	1577.88
449.686	1412.88
449.793	1581.88
449.901	1517.88
450.008	1486.88
450.116	1483.88
450.223	1452.88
450.331	1525.88
450.438	1442.88
450.546	1538.88
450.653	1582.88
450.76	1626.88
450.868	1528.88
450.975	1730.88
451.083	1562.88
451.19	1592.88
451.297	1595.88
451.405	1625.88
451.512	1535.88
451.619	1743.88
451.727	1681.88
451.834	1593.88
451.941	1618.88
452.049	1626.88
452.156	1554.88
452.263	1705.88
452.371	1683.88
452.478	1653.88
452.585	1810.88
452.692	1745.88
452.8	1709.88
452.907	1746.88
453.014	1786.88
453.121	1729.88
453.229	1724.88
453.336	1739.88
453.443	1805.88
453.55	1681.88
453.657	1764.88
453.765	1866.88
453.872	1749.88
453.979	1803.88
454.086	1758.88
454.193	1767.88
454.3	1706.88
454.407	1937.88
454.514	1926.88
454.621	1792.88
454.729	1878.88
454.836	1822.88
454.943	1810.88
455.05	1890.88
455.157	1925.88
455.264	1727.88
455.371	1839.88
455.478	1900.88
455.585	3008.88
455.692	2010.88
455.799	2071.88
455.906	1917.88
456.013	1894.88
456.12	1951.88
456.227	1898.88
456.334	1909.88
456.44	2058.88
456.547	2029.88
456.654	1931.88
456.761	1985.88
456.868	2057.88
456.975	2074.88
457.082	1972.88
457.189	1963.88
457.296	1990.88
457.402	1973.88
457.509	1951.88
457.616	2068.88
457.723	2228.88
457.83	2076.88
457.936	2021.88
458.043	2374.88
458.15	2059.88
458.257	2119.88
458.363	2057.88
458.47	2083.88
458.577	2246.88
458.684	2068.88
458.79	2205.88
458.897	2240.88
459.004	2278.88
459.11	2197.88
459.217	2270.88
459.324	2338.88
459.43	2385.88
459.537	2474.88
459.644	2425.88
459.75	2272.88
459.857	2678.88
459.964	2392.88
460.07	2379.88
460.177	2429.88
460.283	2528.88
460.39	2589.88
460.496	2401.88
460.603	2447.88
460.71	2427.88
460.816	2401.88
460.923	2393.88
461.029	2451.88
461.136	2426.88
461.242	2398.88
461.349	2487.88
461.455	2398.88
461.562	2792.88
461.668	2669.88
461.774	2416.88
461.881	2553.88
461.987	2552.88
462.094	2507.88
462.2	2567.88
462.307	2661.88
462.413	2542.88
462.519	2532.88
462.626	2731.88
462.732	2705.88
462.838	2685.88
462.945	2793.88
463.051	2801.88
463.157	2745.88
463.264	2744.88
463.37	2730.88
463.476	2652.88
463.583	2573.88
463.689	2605.88
463.795	2567.88
463.901	2628.88
464.008	2749.88
464.114	2648.88
464.22	2529.88
464.326	2535.88
464.433	2578.88
464.539	2506.88
464.645	2382.88
464.751	2651.88
464.857	2388.88
464.963	2258.88
465.07	2290.88
465.176	2281.88
465.282	2193.88
465.388	2339.88
465.494	2129.88
465.6	2113.88
465.706	2035.88
465.812	2008.88
465.918	2091.88
466.024	2017.88
466.131	2108.88
466.237	2007.88
466.343	1861.88
466.449	1874.88
466.555	1915.88
466.661	1806.88
466.767	1838.88
466.873	1941.88
466.979	1936.88
467.085	1840.88
467.191	1888.88
467.296	1800.88
467.402	1822.88
467.508	1900.88
467.614	1974.88
467.72	1797.88
467.826	1789.88
467.932	1797.88
468.038	1691.88
468.144	1718.88
468.25	1723.88
468.355	1653.88
468.461	1689.88
468.567	1688.88
468.673	1672.88
468.779	1692.88
468.885	1716.88
468.99	1596.88
469.096	1655.88
469.202	1816.88
469.308	1743.88
469.413	1700.88
469.519	1628.88
469.625	1731.88
469.731	1702.88
469.836	1637.88
469.942	1864.88
470.048	1626.88
470.153	1692.88
470.259	1783.88
470.365	1713.88
470.47	1749.88
470.576	1670.88
470.682	1678.88
470.787	1696.88
470.893	1608.88
470.999	1738.88
471.104	1707.88
471.21	1595.88
471.315	1569.88
471.421	1538.88
471.527	1767.88
471.632	1616.88
471.738	1561.88
471.843	1477.88
471.949	1608.88
472.054	1578.88
472.16	1512.88
472.265	1481.88
472.371	1494.88
472.476	1514.88
472.582	1578.88
472.687	1492.88
472.793	1427.88
472.898	1441.88
473.003	1474.88
473.109	1480.88
473.214	1408.88
473.32	1502.88
473.425	1554.88
473.53	1430.88
473.636	1415.88
473.741	1469.88
473.847	1356.88
473.952	1469.88
474.057	1547.88
474.163	1501.88
474.268	1419.88
474.373	1529.88
474.478	1393.88
474.584	1380.88
474.689	1568.88
474.794	1483.88
474.9	1685.88
475.005	1402.88
475.11	1655.88
475.215	1433.88
475.321	1458.88
475.426	1662.88
475.531	1549.88
475.636	1380.88
475.741	1478.88
475.846	1509.88
475.952	1661.88
476.057	1575.88
476.162	1546.88
476.267	1600.88
476.372	1760.88
476.477	1543.88
476.582	1574.88
476.687	1482.88
476.793	1519.88
476.898	1472.88
477.003	1558.88
477.108	1519.88
477.213	1480.88
477.318	1491.88
477.423	1611.88
477.528	1635.88
477.633	1629.88
477.738	1621.88
477.843	1534.88
477.948	1623.88
478.053	1583.88
478.158	1622.88
478.263	1622.88
478.368	1595.88
478.473	1722.88
478.578	1633.88
478.682	1530.88
478.787	1750.88
478.892	1661.88
478.997	1692.88
479.102	1648.88
479.207	1672.88
479.312	1728.88
479.417	1682.88
479.521	1713.88
479.626	1750.88
479.731	1709.88
479.836	1767.88
479.941	1818.88
480.045	1816.88
480.15	1858.88
480.255	1765.88
480.36	1704.88
480.465	1835.88
480.569	1927.88
480.674	1696.88
480.779	1709.88
480.883	1775.88
480.988	1817.88
481.093	1746.88
481.197	1849.88
481.302	1761.88
481.407	1843.88
481.511	2929.88
481.616	1845.88
481.721	1714.88
481.825	1936.88
481.93	1759.88
482.035	1666.88
482.139	1854.88
482.244	1915.88
482.348	1847.88
482.453	1794.88
482.557	1920.88
482.662	1827.88
482.767	1734.88
482.871	1851.88
482.976	1812.88
483.08	1847.88
483.185	2074.88
483.289	1856.88
483.394	1881.88
483.498	1906.88
483.603	1886.88
483.707	1890.88
483.811	2013.88
483.916	1988.88
484.02	1901.88
484.125	1978.88
484.229	2013.88
484.333	2057.88
484.438	1867.88
484.542	1968.88
484.647	1959.88
484.751	1977.88
484.855	2054.88
484.96	1984.88
485.064	2004.88
485.168	2015.88
485.273	2077.88
485.377	2012.88
485.481	2225.88
485.585	2108.88
485.69	2065.88
485.794	2153.88
485.898	2119.88
486.002	2101.88
486.107	2133.88
486.211	2139.88
486.315	2258.88
486.419	2201.88
486.524	2148.88
486.628	2192.88
486.732	2107.88
486.836	2125.88
486.94	2291.88
487.044	2172.88
487.148	2168.88
487.253	2217.88
487.357	2155.88
487.461	2338.88
487.565	2180.88
487.669	2232.88
487.773	2195.88
487.877	2229.88
487.981	2281.88
488.085	2201.88
488.189	2149.88
488.293	2395.88
488.397	2595.88
488.501	2324.88
488.605	2193.88
488.709	2199.88
488.813	2214.88
488.917	2216.88
489.021	2247.88
489.125	2474.88
489.229	2201.88
489.333	2376.88
489.437	2261.88
489.541	2207.88
489.645	2284.88
489.749	2241.88
489.853	2304.88
489.956	2314.88
490.06	2280.88
490.164	2277.88
490.268	2254.88
490.372	2310.88
490.476	2275.88
490.579	2310.88
490.683	2910.88
490.787	2387.88
490.891	2274.88
490.995	2339.88
491.098	2290.88
491.202	2268.88
491.306	2374.88
491.41	2338.88
491.513	2327.88
491.617	2339.88
491.721	2443.88
491.824	2495.88
491.928	2322.88
492.032	2542.88
492.136	2319.88
492.239	2241.88
492.343	2415.88
492.446	2655.88
492.55	2369.88
492.654	2293.88
492.757	2282.88
492.861	2336.88
492.965	2323.88
493.068	2403.88
493.172	2284.88
493.275	2249.88
493.379	2322.88
493.482	2379.88
493.586	2489.88
493.689	2597.88
493.793	2286.88
493.896	2406.88
494	2387.88
494.103	2420.88
494.207	2560.88
494.31	2680.88
494.414	2419.88
494.517	2307.88
494.621	2205.88
494.724	2394.88
494.828	2187.88
494.931	2293.88
495.034	2287.88
495.138	2411.88
495.241	2225.88
495.345	3037.88
495.448	2413.88
495.551	2297.88
495.655	2360.88
495.758	2263.88
495.861	2248.88
495.965	2301.88
496.068	2348.88
496.171	2380.88
496.274	2303.88
496.378	2368.88
496.481	2281.88
496.584	2302.88
496.687	2379.88
496.791	2311.88
496.894	2399.88
496.997	2410.88
497.1	2317.88
497.204	2332.88
497.307	2252.88
497.41	2521.88
497.513	2539.88
497.616	2402.88
497.719	2399.88
497.823	2375.88
497.926	2419.88
498.029	2469.88
498.132	2405.88
498.235	2436.88
498.338	2601.88
498.441	2708.88
498.544	2537.88
498.647	2673.88
498.75	2762.88
498.853	2817.88
498.956	2776.88
499.059	2966.88
499.163	2851.88
499.266	2907.88
499.369	3057.88
499.471	3005.88
499.574	3256.88
499.677	3286.88
499.78	3322.88
499.883	3381.88
499.986	3458.88
500.089	3541.88
500.192	3568.88
500.295	3649.88
500.398	3652.88
500.501	3559.88
500.604	3493.88
500.707	3436.88
500.809	3373.88
500.912	3373.88
501.015	3360.88
501.118	3112.88
501.221	3068.88
501.324	2951.88
501.426	2845.88
501.529	2696.88
501.632	2696.88
501.735	2590.88
501.837	2486.88
501.94	2524.88
502.043	2506.88
502.146	2460.88
502.248	2389.88
502.351	2359.88
502.454	2324.88
502.557	2218.88
502.659	2340.88
502.762	2169.88
502.865	2130.88
502.967	2120.88
503.07	2175.88
503.173	2111.88
503.275	2097.88
503.378	2116.88
503.48	2003.88
503.583	2105.88
503.686	2189.88
503.788	2236.88
503.891	2073.88
503.993	2283.88
504.096	2052.88
504.198	2038.88
504.301	1932.88
504.403	1966.88
504.506	1963.88
504.608	1934.88
504.711	1971.88
504.813	1964.88
504.916	2009.88
505.018	1924.88
505.121	1765.88
505.223	1828.88
505.326	1831.88
505.428	1913.88
505.531	1804.88
505.633	1825.88
505.735	1761.88
505.838	1750.88
505.94	1776.88
506.042	1763.88
506.145	1688.88
506.247	1771.88
506.35	1707.88
506.452	1776.88
506.554	1752.88
506.656	1753.88
506.759	1678.88
506.861	1720.88
506.963	1668.88
507.066	1751.88
507.168	1826.88
507.27	1689.88
507.372	1684.88
507.475	1633.88
507.577	1698.88
507.679	1676.88
507.781	1601.88
507.883	1663.88
507.986	1604.88
508.088	1660.88
508.19	1600.88
508.292	1664.88
508.394	1597.88
508.496	1535.88
508.598	1605.88
508.701	1636.88
508.803	1625.88
508.905	1537.88
509.007	1681.88
509.109	1684.88
509.211	1569.88
509.313	1609.88
509.415	1539.88
509.517	1573.88
509.619	1573.88
509.721	1607.88
509.823	1553.88
509.925	1719.88
510.027	1609.88
510.129	1527.88
510.231	1552.88
510.333	1591.88
510.435	1466.88
510.537	1597.88
510.639	1642.88
510.741	1613.88
510.843	1639.88
510.945	1542.88
511.047	1667.88
511.148	1584.88
511.25	1528.88
511.352	1575.88
511.454	1458.88
511.556	1590.88
511.658	1607.88
511.76	1605.88
511.861	1723.88
511.963	1569.88
512.065	1554.88
512.167	1491.88
512.268	1753.88
512.37	1611.88
512.472	1553.88
512.574	1634.88
512.676	1685.88
512.777	1550.88
512.879	1559.88
512.981	1569.88
513.082	1571.88
513.184	1585.88
513.286	2049.88
513.387	1628.88
513.489	1644.88
513.591	1678.88
513.692	1639.88
513.794	1632.88
513.896	1495.88
513.997	1591.88
514.099	1573.88
514.2	1655.88
514.302	1642.88
514.404	1582.88
514.505	1543.88
514.607	1701.88
514.708	1591.88
514.81	1660.88
514.911	1718.88
515.013	1740.88
515.114	1689.88
515.216	1712.88
515.317	1736.88
515.419	1668.88
515.52	1692.88
515.622	1716.88
515.723	1787.88
515.825	1858.88
515.926	1821.88
516.027	1719.88
516.129	1696.88
516.23	1836.88
516.332	1757.88
516.433	1790.88
516.534	1913.88
516.636	1847.88
516.737	1715.88
516.838	2755.88
516.94	2043.88
517.041	1916.88
517.142	2017.88
517.244	2109.88
517.345	1963.88
517.446	2058.88
517.547	2093.88
517.649	1972.88
517.75	1952.88
517.851	2001.88
517.952	2255.88
518.054	2041.88
518.155	2172.88
518.256	2073.88
518.357	2149.88
518.458	1926.88
518.56	1971.88
518.661	1938.88
518.762	1988.88
518.863	2039.88
518.964	1995.88
519.065	1901.88
519.166	1909.88
519.268	1876.88
519.369	2036.88
519.47	1961.88
519.571	1919.88
519.672	1847.88
519.773	1864.88
519.874	1903.88
519.975	1900.88
520.076	1842.88
520.177	1981.88
520.278	1897.88
520.379	1920.88
520.48	1837.88
520.581	1798.88
520.682	1779.88
520.783	1762.88
520.884	1933.88
520.985	1836.88
521.086	1856.88
521.187	1899.88
521.288	1752.88
521.389	1834.88
521.489	1836.88
521.59	1814.88
521.691	1809.88
521.792	1811.88
521.893	1936.88
521.994	1947.88
522.095	1874.88
522.195	2019.88
522.296	1972.88
522.397	1945.88
522.498	1965.88
522.599	1796.88
522.699	1919.88
522.8	1899.88
522.901	1964.88
523.002	1851.88
523.102	2115.88
523.203	1894.88
523.304	2041.88
523.405	1878.88
523.505	1965.88
523.606	1914.88
523.707	1883.88
523.807	1989.88
523.908	1975.88
524.009	1973.88
524.109	2007.88
524.21	1931.88
524.31	1969.88
524.411	2081.88
524.512	2101.88
524.612	1952.88
524.713	2111.88
524.813	1996.88
524.914	2131.88
525.014	7135.88
525.115	2380.88
525.216	1847.88
525.316	1976.88
525.417	2012.88
525.517	1923.88
525.618	1867.88
525.718	1868.88
525.819	1859.88
525.919	1925.88
526.019	1889.88
526.12	1992.88
526.22	1828.88
526.321	1852.88
526.421	1887.88
526.522	1861.88
526.622	1828.88
526.722	1826.88
526.823	1849.88
526.923	1857.88
527.023	1989.88
527.124	1866.88
527.224	1929.88
527.324	1812.88
527.425	1918.88
527.525	1809.88
527.625	1878.88
527.726	1913.88
527.826	1948.88
527.926	1940.88
528.026	1932.88
528.127	1825.88
528.227	1889.88
528.327	2006.88
528.427	1869.88
528.528	1948.88
528.628	1963.88
528.728	1913.88
528.828	1957.88
528.928	2031.88
529.029	1933.88
529.129	1965.88
529.229	1979.88
529.329	1990.88
529.429	2020.88
529.529	1964.88
529.629	1984.88
529.729	1876.88
529.829	1986.88
529.93	1876.88
530.03	1947.88
530.13	1819.88
530.23	1872.88
530.33	1940.88
530.43	1794.88
530.53	1882.88
530.63	1929.88
530.73	1734.88
530.83	1757.88
530.93	1842.88
531.03	1792.88
531.13	1836.88
531.23	1755.88
531.33	1786.88
531.429	1812.88
531.529	1816.88
531.629	1854.88
531.729	1739.88
531.829	1720.88
531.929	1841.88
532.029	1811.88
532.129	1770.88
532.229	1861.88
532.328	1758.88
532.428	1708.88
532.528	1727.88
532.628	1732.88
532.728	1763.88
532.827	1644.88
532.927	1847.88
533.027	1731.88
533.127	1923.88
533.227	1827.88
533.326	1812.88
533.426	1677.88
533.526	1859.88
533.625	1837.88
533.725	1948.88
533.825	1813.88
533.924	1645.88
534.024	1583.88
534.124	1702.88
534.223	1740.88
534.323	2025.88
534.423	1730.88
534.522	1772.88
534.622	1597.88
534.722	1628.88
534.821	1737.88
534.921	1616.88
535.02	1589.88
535.12	1692.88
535.219	1781.88
535.319	1711.88
535.419	1719.88
535.518	1662.88
535.618	1651.88
535.717	1686.88
535.817	1624.88
535.916	1508.88
536.016	1626.88
536.115	1586.88
536.215	1494.88
536.314	1444.88
536.413	1476.88
536.513	1568.88
536.612	1441.88
536.712	1417.88
536.811	1535.88
536.91	1477.88
537.01	1448.88
537.109	1600.88
537.209	1528.88
537.308	1458.88
537.407	1564.88
537.507	1506.88
537.606	1465.88
537.705	1557.88
537.805	1469.88
537.904	1373.88
538.003	1520.88
538.102	1621.88
538.202	1518.88
538.301	1538.88
538.4	1552.88
538.499	1522.88
538.599	1530.88
538.698	1789.88
538.797	1532.88
538.896	1543.88
538.995	1579.88
539.095	1490.88
539.194	1706.88
539.293	1553.88
539.392	1529.88
539.491	1479.88
539.59	1475.88
539.689	1655.88
539.789	1493.88
539.888	1356.88
539.987	1381.88
540.086	1413.88
540.185	1445.88
540.284	1562.88
540.383	1436.88
540.482	1381.88
540.581	1486.88
540.68	1453.88
540.779	1493.88
540.878	1449.88
540.977	1543.88
541.076	1459.88
541.175	1497.88
541.274	1741.88
541.373	1521.88
541.472	1517.88
541.571	1482.88
541.67	2539.88
541.769	1665.88
541.868	1490.88
541.966	1546.88
542.065	1525.88
542.164	1489.88
542.263	1493.88
542.362	1435.88
542.461	1458.88
542.56	1515.88
542.658	1505.88
542.757	1392.88
542.856	1391.88
542.955	1346.88
543.054	1325.88
543.152	1495.88
543.251	1417.88
543.35	1562.88
543.449	1451.88
543.547	1418.88
543.646	1394.88
543.745	1437.88
543.843	1522.88
543.942	1454.88
544.041	1406.88
544.14	1482.88
544.238	1399.88
544.337	1654.88
544.436	1546.88
544.534	1574.88
544.633	1475.88
544.731	1508.88
544.83	1475.88
544.929	1382.88
545.027	1444.88
545.126	1416.88
545.224	1499.88
545.323	1413.88
545.421	1477.88
545.52	1439.88
545.619	1453.88
545.717	1446.88
545.816	1555.88
545.914	1484.88
546.013	1628.88
546.111	1639.88
546.209	1454.88
546.308	1435.88
546.406	1497.88
546.505	1556.88
546.603	1481.88
546.702	1411.88
546.8	1390.88
546.899	1406.88
546.997	1505.88
547.095	1449.88
547.194	1474.88
547.292	1463.88
547.39	1535.88
547.489	1448.88
547.587	1732.88
547.685	1439.88
547.784	1599.88
547.882	1515.88
547.98	1389.88
548.079	1479.88
548.177	1344.88
548.275	1362.88
548.373	1505.88
548.472	1370.88
548.57	1442.88
548.668	1531.88
548.766	1382.88
548.864	1511.88
548.963	1440.88
549.061	1531.88
549.159	1386.88
549.257	1497.88
549.355	1466.88
549.454	1374.88
549.552	1546.88
549.65	1438.88
549.748	1378.88
549.846	1388.88
549.944	1403.88
550.042	1368.88
550.14	1390.88
550.238	1466.88
550.336	1358.88
550.434	1352.88
550.532	1418.88
550.631	1474.88
550.729	1397.88
550.827	1444.88
550.925	1329.88
551.023	1402.88
551.121	1343.88
551.218	1333.88
551.316	1284.88
551.414	1331.88
551.512	1300.88
551.61	1340.88
551.708	1403.88
551.806	1397.88
551.904	1324.88
552.002	1309.88
552.1	1407.88
552.198	1324.88
552.296	1510.88
552.393	1566.88
552.491	1578.88
552.589	1517.88
552.687	1534.88
552.785	1502.88
552.882	1554.88
552.98	1715.88
553.078	1658.88
553.176	1572.88
553.274	1442.88
553.371	1453.88
553.469	1445.88
553.567	1440.88
553.665	1431.88
553.762	1901.88
553.86	1554.88
553.958	1542.88
554.055	1471.88
554.153	1498.88
554.251	1435.88
554.348	1504.88
554.446	1366.88
554.544	1390.88
554.641	1742.88
554.739	1344.88
554.837	1369.88
554.934	1481.88
555.032	1412.88
555.129	1313.88
555.227	1737.88
555.324	6043.88
555.422	1749.88
555.519	1375.88
555.617	1428.88
555.715	1267.88
555.812	1631.88
555.91	1331.88
556.007	1384.88
556.105	1296.88
556.202	1366.88
556.299	1338.88
556.397	1339.88
556.494	1317.88
556.592	1302.88
556.689	1328.88
556.787	1285.88
556.884	1339.88
556.981	1283.88
557.079	1255.88
557.176	1373.88
557.273	1382.88
557.371	1359.88
557.468	1353.88
557.566	1345.88
557.663	1324.88
557.76	1346.88
557.857	1330.88
557.955	1357.88
558.052	1454.88
558.149	1492.88
558.247	1442.88
558.344	1307.88
558.441	1355.88
558.538	1285.88
558.636	1342.88
558.733	1390.88
558.83	1380.88
558.927	1302.88
559.024	1331.88
559.122	1322.88
559.219	1288.88
559.316	1402.88
559.413	1462.88
559.51	1303.88
559.607	1240.88
559.704	1414.88
559.801	1396.88
559.899	1309.88
559.996	1602.88
560.093	1421.88
560.19	1265.88
560.287	1403.88
560.384	1485.88
560.481	1298.88
560.578	1341.88
560.675	1327.88
560.772	1382.88
560.869	1354.88
560.966	1551.88
561.063	1323.88
561.16	1430.88
561.257	1420.88
561.354	1352.88
561.451	1358.88
561.548	1413.88
561.645	1523.88
561.742	1380.88
561.838	1366.88
561.935	1398.88
562.032	1385.88
562.129	1322.88
562.226	1419.88
562.323	1363.88
562.42	1391.88
562.516	1369.88
562.613	1354.88
562.71	1333.88
562.807	2108.88
562.904	1357.88
563	1343.88
563.097	1383.88
563.194	1399.88
563.291	1342.88
563.387	1379.88
563.484	1451.88
563.581	1321.88
563.678	1324.88
563.774	1759.88
563.871	1397.88
563.968	1355.88
564.064	1468.88
564.161	1337.88
564.258	1373.88
564.354	1462.88
564.451	1438.88
564.548	1389.88
564.644	1408.88
564.741	1464.88
564.837	1307.88
564.934	1396.88
565.031	1477.88
565.127	1482.88
565.224	1451.88
565.32	1615.88
565.417	1480.88
565.513	1487.88
565.61	1560.88
565.706	1625.88
565.803	1526.88
565.899	1584.88
565.996	1668.88
566.092	1519.88
566.189	1578.88
566.285	1615.88
566.382	1618.88
566.478	1686.88
566.574	1801.88
566.671	1626.88
566.767	1629.88
566.864	1685.88
566.96	1782.88
567.056	1663.88
567.153	1867.88
567.249	1827.88
567.345	1816.88
567.442	1801.88
567.538	1887.88
567.634	1781.88
567.731	1734.88
567.827	1750.88
567.923	1800.88
568.019	1615.88
568.116	1598.88
568.212	1535.88
568.308	1634.88
568.404	1590.88
568.501	1533.88
568.597	1569.88
568.693	1454.88
568.789	2069.88
568.885	1482.88
568.982	1488.88
569.078	1419.88
569.174	1466.88
569.27	1354.88
569.366	1430.88
569.462	1390.88
569.558	1298.88
569.655	1323.88
569.751	1296.88
569.847	1256.88
569.943	1303.88
570.039	1266.88
570.135	1705.88
570.231	1261.88
570.327	1450.88
570.423	1346.88
570.519	1300.88
570.615	1256.88
570.711	1368.88
570.807	1292.88
570.903	1257.88
570.999	1357.88
571.095	1301.88
571.191	1272.88
571.287	1353.88
571.383	1394.88
571.479	1290.88
571.574	1403.88
571.67	1248.88
571.766	1422.88
571.862	1276.88
571.958	1208.88
572.054	1237.88
572.15	1166.88
572.246	1168.88
572.341	1279.88
572.437	1146.88
572.533	1210.88
572.629	1123.88
572.725	1137.88
572.82	1172.88
572.916	1173.88
573.012	1116.88
573.108	1241.88
573.203	1107.88
573.299	1082.88
573.395	1041.88
573.49	1060.88
573.586	1072.88
573.682	1108.88
573.778	1271.88
573.873	1029.88
573.969	1036.88
574.065	1094.88
574.16	1105.88
574.256	1063.88
574.351	1184.88
574.447	1008.88
574.543	1073.88
574.638	1204.88
574.734	1124.88
574.829	1271.88
574.925	1066.88
575.02	1101.88
575.116	1035.88
575.212	1056.88
575.307	1226.88
575.403	1037.88
575.498	1052.88
575.594	1073.88
575.689	1100.88
575.784	1078.88
575.88	1082.88
575.975	1112.88
576.071	992.88
576.166	964.88
576.262	1020.88
576.357	1044.88
576.452	1132.88
576.548	1075.88
576.643	992.88
576.739	992.88
576.834	1015.88
576.929	1013.88
577.025	1601.88
577.12	995.88
577.215	1000.88
577.311	993.88
577.406	1074.88
577.501	1149.88
577.597	943.88
577.692	1075.88
577.787	1140.88
577.882	971.88
577.978	1013.88
578.073	1001.88
578.168	901.88
578.263	877.88
578.358	948.88
578.454	880.88
578.549	866.88
578.644	873.88
578.739	1005.88
578.834	866.88
578.929	850.88
579.025	937.88
579.12	966.88
579.215	1117.88
579.31	1082.88
579.405	851.88
579.5	912.88
579.595	900.88
579.69	836.88
579.785	804.88
579.88	855.88
579.975	930.88
580.07	854.88
580.165	909.88
580.26	1004.88
580.355	914.88
580.45	841.88
580.545	841.88
580.64	871.88
580.735	905.88
580.83	902.88
580.925	795.88
581.02	768.88
581.115	851.88
581.21	750.88
581.305	800.88
581.4	863.88
581.495	854.88
581.589	813.88
581.684	724.88
581.779	942.88
581.874	791.88
581.969	813.88
582.064	795.88
582.158	777.88
582.253	770.88
582.348	807.88
582.443	864.88
582.537	782.88
582.632	1015.88
582.727	872.88
582.822	771.88
582.916	761.88
583.011	820.88
583.106	790.88
583.201	761.88
583.295	837.88
583.39	712.88
583.485	759.88
583.579	2840.88
583.674	1006.88
583.769	998.88
583.863	802.88
583.958	851.88
584.052	723.88
584.147	738.88
584.242	731.88
584.336	684.88
584.431	892.88
584.525	755.88
584.62	868.88
584.714	784.88
584.809	777.88
584.903	764.88
584.998	763.88
585.092	678.88
585.187	750.88
585.281	727.88
585.376	726.88
585.47	776.88
585.565	712.88
585.659	631.88
585.754	729.88
585.848	746.88
585.942	674.88
586.037	731.88
586.131	2852.88
586.226	867.88
586.32	768.88
586.414	655.88
586.509	796.88
586.603	791.88
586.697	729.88
586.792	658.88
586.886	664.88
586.98	795.88
587.075	709.88
587.169	691.88
587.263	883.88
587.357	711.88
587.452	656.88
587.546	755.88
587.64	641.88
587.734	702.88
587.829	714.88
587.923	731.88
588.017	665.88
588.111	667.88
588.205	775.88
588.3	650.88
588.394	595.88
588.488	647.88
588.582	733.88
588.676	723.88
588.77	791.88
588.864	1089.88
588.958	1053.88
589.052	881.88
589.147	936.88
589.241	770.88
589.335	737.88
589.429	912.88
589.523	916.88
589.617	876.88
589.711	831.88
589.805	740.88
589.899	799.88
589.993	698.88
590.087	656.88
590.181	586.88
590.275	665.88
590.369	671.88
590.462	587.88
590.556	582.88
590.65	641.88
590.744	598.88
590.838	609.88
590.932	679.88
591.026	688.88
591.12	787.88
591.214	663.88
591.307	701.88
591.401	641.88
591.495	694.88
591.589	645.88
591.683	654.88
591.777	681.88
591.87	1068.88
591.964	656.88
592.058	594.88
592.152	685.88
592.245	598.88
592.339	659.88
592.433	829.88
592.527	672.88
592.62	585.88
592.714	671.88
592.808	746.88
592.901	672.88
592.995	650.88
593.089	904.88
593.182	702.88
593.276	616.88
593.37	643.88
593.463	638.88
593.557	603.88
593.65	667.88
593.744	664.88
593.837	702.88
593.931	619.88
594.025	4154.88
594.118	989.88
594.212	625.88
594.305	661.88
594.399	656.88
594.492	956.88
594.586	688.88
594.679	592.88
594.773	600.88
594.866	648.88
594.96	682.88
595.053	559.88
595.146	599.88
595.24	576.88
595.333	535.88
595.427	504.88
595.52	577.88
595.614	736.88
595.707	551.88
595.8	584.88
595.894	555.88
595.987	515.88
596.08	550.88
596.174	886.88
596.267	633.88
596.36	665.88
596.454	698.88
596.547	628.88
596.64	556.88
596.733	533.88
596.827	616.88
596.92	525.88
597.013	506.88
597.106	456.88
597.2	497.88
597.293	525.88
597.386	748.88
597.479	621.88
597.572	568.88
597.666	517.88
597.759	476.88
597.852	593.88
597.945	499.88
598.038	450.88
598.131	477.88
598.224	512.88
598.317	581.88
598.411	564.88
598.504	490.88
598.597	528.88
598.69	483.88
598.783	503.88
598.876	564.88
598.969	510.88
599.062	433.88
599.155	593.88
599.248	453.88
599.341	485.88
599.434	506.88
599.527	496.88
599.62	516.88
599.713	480.88
599.806	540.88
599.899	657.88
599.991	481.88
600.084	671.88
600.177	469.88
600.27	445.88
600.363	710.88
600.456	468.88
600.549	541.88
600.642	485.88
600.734	447.88
600.827	466.88
600.92	622.88
601.013	498.88
601.106	552.88
601.199	497.88
601.291	523.88
601.384	483.88
601.477	673.88
601.57	631.88
601.662	467.88
601.755	500.88
601.848	566.88
601.94	417.88
602.033	564.88
602.126	550.88
602.219	412.88
602.311	571.88
602.404	465.88
602.497	448.88
602.589	457.88
602.682	529.88
602.774	555.88
602.867	505.88
602.96	475.88
603.052	523.88
603.145	449.88
603.237	528.88
603.33	525.88
603.422	601.88
603.515	468.88
603.608	510.88
603.7	508.88
603.793	476.88
603.885	504.88
603.978	530.88
604.07	445.88
604.163	418.88
604.255	548.88
604.347	448.88
604.44	402.88
604.532	509.88
604.625	485.88
604.717	493.88
604.81	537.88
604.902	453.88
604.994	438.88
605.087	451.88
605.179	474.88
605.271	464.88
605.364	488.88
605.456	558.88
605.548	466.88
605.641	491.88
605.733	469.88
605.825	450.88
605.918	416.88
606.01	686.88
606.102	910.88
606.194	487.88
606.287	589.88
606.379	488.88
606.471	493.88
606.563	468.88
606.655	567.88
606.748	540.88
606.84	452.88
606.932	567.88
607.024	432.88
607.116	446.88
607.208	461.88
607.301	482.88
607.393	424.88
607.485	483.88
607.577	521.88
607.669	529.88
607.761	515.88
607.853	730.88
607.945	455.88
608.037	409.88
608.129	497.88
608.221	441.88
608.313	396.88
608.405	562.88
608.497	483.88
608.589	437.88
608.681	469.88
608.773	519.88
608.865	446.88
608.957	489.88
609.049	470.88
609.141	517.88
609.233	434.88
609.325	421.88
609.417	415.88
609.509	500.88
609.601	652.88
609.693	528.88
609.784	385.88
609.876	487.88
609.968	489.88
610.06	2449.88
610.152	678.88
610.244	1089.88
610.335	478.88
610.427	424.88
610.519	457.88
610.611	475.88
610.702	420.88
610.794	468.88
610.886	519.88
610.978	481.88
611.069	898.88
611.161	508.88
611.253	479.88
611.344	424.88
611.436	360.88
611.528	460.88
611.62	369.88
611.711	462.88
611.803	327.88
611.894	353.88
611.986	388.88
612.078	366.88
612.169	399.88
612.261	425.88
612.352	381.88
612.444	325.88
612.536	457.88
612.627	391.88
612.719	300.88
612.81	321.88
612.902	354.88
612.993	375.88
613.085	336.88
613.176	306.88
613.268	292.88
613.359	287.88
613.451	285.88
613.542	303.88
613.634	264.88
613.725	342.88
613.816	438.88
613.908	216.88
613.999	260.88
614.091	249.88
614.182	163.88
614.273	288.88
614.365	243.88
614.456	167.88
614.547	207.88
614.639	198.88
614.73	206.88
614.821	296.88
614.913	172.88
615.004	149.88
615.095	125.88
615.187	148.88
