Data from 7g_HRC06701__5__127.txt Node

Date: Thu Apr 18 01:49:54 CDT 2024
User: Estudiantes 2
Spectrometer: HR+C0670
Trigger mode: 4
Integration Time (sec): 1.000000E0
Scans to average: 1
Electric dark correction enabled: true
Nonlinearity correction enabled: false
Boxcar width: 0
XAxis mode: Wavelengths
Number of Pixels in Spectrum: 2048
>>>>>Begin Spectral Data<<<<<
407.81	-128.31
407.921	-128.31
408.032	-128.31
408.143	-102.31
408.254	-134.31
408.365	14.69
408.476	239.69
408.587	-50.31
408.699	-26.31
408.81	-13.31
408.921	-15.31
409.032	-58.31
409.143	28.69
409.254	106.69
409.365	79.69
409.476	-12.31
409.587	48.69
409.698	22.69
409.809	75.69
409.92	-28.31
410.031	-30.31
410.142	49.69
410.253	34.69
410.364	35.69
410.475	547.69
410.585	2846.69
410.696	3095.69
410.807	2966.69
410.918	2934.69
411.029	3200.69
411.14	3051.69
411.251	3044.69
411.362	3175.69
411.472	3112.69
411.583	3031.69
411.694	3231.69
411.805	3105.69
411.916	3118.69
412.026	3272.69
412.137	3243.69
412.248	3133.69
412.359	3121.69
412.47	3063.69
412.58	2958.69
412.691	3038.69
412.802	3070.69
412.912	3087.69
413.023	3038.69
413.134	2989.69
413.245	3057.69
413.355	3070.69
413.466	3056.69
413.577	2971.69
413.687	3092.69
413.798	2945.69
413.909	3165.69
414.019	3045.69
414.13	3102.69
414.24	3059.69
414.351	3130.69
414.462	3281.69
414.572	3147.69
414.683	3218.69
414.793	3061.69
414.904	3372.69
415.014	3055.69
415.125	2924.69
415.235	3134.69
415.346	3253.69
415.456	3148.69
415.567	3059.69
415.677	3121.69
415.788	3099.69
415.898	2994.69
416.009	3030.69
416.119	3056.69
416.23	3032.69
416.34	3033.69
416.45	3120.69
416.561	3539.69
416.671	3099.69
416.782	3016.69
416.892	3076.69
417.002	3065.69
417.113	3217.69
417.223	3073.69
417.333	3027.69
417.444	3095.69
417.554	3171.69
417.664	3162.69
417.775	3043.69
417.885	3244.69
417.995	3172.69
418.106	3392.69
418.216	3295.69
418.326	3345.69
418.436	3336.69
418.547	3371.69
418.657	3326.69
418.767	3457.69
418.877	3446.69
418.987	3411.69
419.098	3402.69
419.208	3433.69
419.318	3500.69
419.428	3484.69
419.538	3368.69
419.648	3535.69
419.759	3415.69
419.869	3494.69
419.979	3389.69
420.089	3480.69
420.199	3479.69
420.309	3500.69
420.419	3450.69
420.529	3456.69
420.639	3775.69
420.749	3532.69
420.859	3567.69
420.969	3515.69
421.079	3749.69
421.189	3562.69
421.299	3558.69
421.409	3585.69
421.519	3616.69
421.629	3754.69
421.739	3597.69
421.849	3595.69
421.959	3610.69
422.069	3684.69
422.179	3671.69
422.289	3678.69
422.399	3746.69
422.509	3812.69
422.619	6733.69
422.729	4017.69
422.838	3808.69
422.948	3843.69
423.058	3868.69
423.168	4006.69
423.278	3887.69
423.388	3925.69
423.498	4118.69
423.607	4128.69
423.717	4345.69
423.827	4200.69
423.937	4169.69
424.046	4250.69
424.156	4271.69
424.266	4172.69
424.376	4361.69
424.485	4313.69
424.595	4338.69
424.705	4287.69
424.815	4284.69
424.924	4759.69
425.034	4403.69
425.144	4262.69
425.253	4340.69
425.363	4546.69
425.473	4472.69
425.582	4243.69
425.692	4460.69
425.801	4346.69
425.911	4593.69
426.021	4502.69
426.13	4705.69
426.24	4761.69
426.349	4615.69
426.459	4600.69
426.568	4523.69
426.678	4694.69
426.787	4674.69
426.897	4605.69
427.006	4652.69
427.116	4730.69
427.225	4745.69
427.335	4832.69
427.444	4786.69
427.554	4726.69
427.663	4916.69
427.773	4829.69
427.882	4987.69
427.992	4758.69
428.101	4914.69
428.21	4921.69
428.32	5048.69
428.429	4982.69
428.539	5348.69
428.648	5049.69
428.757	5070.69
428.867	5218.69
428.976	5300.69
429.085	5120.69
429.195	5230.69
429.304	5094.69
429.413	5193.69
429.523	5199.69
429.632	5246.69
429.741	5130.69
429.85	5140.69
429.96	5348.69
430.069	5274.69
430.178	5344.69
430.287	5676.69
430.397	5471.69
430.506	5252.69
430.615	5392.69
430.724	5563.69
430.833	5411.69
430.943	5412.69
431.052	5400.69
431.161	5467.69
431.27	5528.69
431.379	5657.69
431.488	5891.69
431.597	5676.69
431.706	5867.69
431.816	5755.69
431.925	5727.69
432.034	5709.69
432.143	5852.69
432.252	5668.69
432.361	5904.69
432.47	5816.69
432.579	5729.69
432.688	5718.69
432.797	5752.69
432.906	5606.69
433.015	5844.69
433.124	6117.69
433.233	5778.69
433.342	5713.69
433.451	5860.69
433.56	5873.69
433.669	5843.69
433.778	5743.69
433.886	6063.69
433.995	5973.69
434.104	6127.69
434.213	5941.69
434.322	5964.69
434.431	6207.69
434.54	6419.69
434.649	6443.69
434.757	6381.69
434.866	6250.69
434.975	6184.69
435.084	6198.69
435.193	6119.69
435.301	6072.69
435.41	6115.69
435.519	6225.69
435.628	5620.69
435.737	5565.69
435.845	5660.69
435.954	5409.69
436.063	5415.69
436.171	5399.69
436.28	5429.69
436.389	5609.69
436.498	5375.69
436.606	5519.69
436.715	5585.69
436.823	5273.69
436.932	5227.69
437.041	5224.69
437.149	5211.69
437.258	5055.69
437.367	5017.69
437.475	5033.69
437.584	5330.69
437.692	5115.69
437.801	6568.69
437.91	5110.69
438.018	5025.69
438.127	4924.69
438.235	5015.69
438.344	5004.69
438.452	5077.69
438.561	4962.69
438.669	4907.69
438.778	4925.69
438.886	4851.69
438.995	4857.69
439.103	4958.69
439.212	4909.69
439.32	4965.69
439.428	4904.69
439.537	4913.69
439.645	5074.69
439.754	5015.69
439.862	4916.69
439.97	4946.69
440.079	5036.69
440.187	4930.69
440.295	5154.69
440.404	5052.69
440.512	5078.69
440.62	5076.69
440.729	5110.69
440.837	5228.69
440.945	5865.69
441.054	5250.69
441.162	5224.69
441.27	5484.69
441.378	5453.69
441.487	5420.69
441.595	5928.69
441.703	5576.69
441.811	5399.69
441.92	5356.69
442.028	5224.69
442.136	5343.69
442.244	5285.69
442.352	5274.69
442.461	5167.69
442.569	5241.69
442.677	5196.69
442.785	5289.69
442.893	5232.69
443.001	5152.69
443.109	5127.69
443.217	5095.69
443.325	5228.69
443.434	5768.69
443.542	5516.69
443.65	5320.69
443.758	5443.69
443.866	5403.69
443.974	5773.69
444.082	5597.69
444.19	5699.69
444.298	5831.69
444.406	6105.69
444.514	5975.69
444.622	6102.69
444.73	6135.69
444.838	5963.69
444.946	5991.69
445.054	5768.69
445.161	5735.69
445.269	5578.69
445.377	5466.69
445.485	5531.69
445.593	5530.69
445.701	5631.69
445.809	5403.69
445.917	5388.69
446.025	5268.69
446.132	5495.69
446.24	5356.69
446.348	5350.69
446.456	5198.69
446.564	5307.69
446.671	5346.69
446.779	5393.69
446.887	5314.69
446.995	5219.69
447.102	5279.69
447.21	5219.69
447.318	5223.69
447.426	5108.69
447.533	5475.69
447.641	6387.69
447.749	5319.69
447.856	5224.69
447.964	5223.69
448.072	5322.69
448.179	5251.69
448.287	5318.69
448.395	5324.69
448.502	5134.69
448.61	5281.69
448.718	5188.69
448.825	5274.69
448.933	5304.69
449.04	5287.69
449.148	5312.69
449.256	5393.69
449.363	5303.69
449.471	5389.69
449.578	5562.69
449.686	5331.69
449.793	5573.69
449.901	5466.69
450.008	5634.69
450.116	5562.69
450.223	5593.69
450.331	5780.69
450.438	5778.69
450.546	5856.69
450.653	5976.69
450.76	5950.69
450.868	5911.69
450.975	6188.69
451.083	6002.69
451.19	6031.69
451.297	5967.69
451.405	6006.69
451.512	6034.69
451.619	6159.69
451.727	6251.69
451.834	6000.69
451.941	6068.69
452.049	6156.69
452.156	6124.69
452.263	6240.69
452.371	6352.69
452.478	6230.69
452.585	6315.69
452.692	6159.69
452.8	6345.69
452.907	6413.69
453.014	6319.69
453.121	6344.69
453.229	6295.69
453.336	6464.69
453.443	6504.69
453.55	6372.69
453.657	6352.69
453.765	6675.69
453.872	6519.69
453.979	6632.69
454.086	6577.69
454.193	6676.69
454.3	6442.69
454.407	6739.69
454.514	6822.69
454.621	6621.69
454.729	6527.69
454.836	6731.69
454.943	6686.69
455.05	6638.69
455.157	6860.69
455.264	6700.69
455.371	6795.69
455.478	6762.69
455.585	8203.69
455.692	6985.69
455.799	7100.69
455.906	6924.69
456.013	6947.69
456.12	6972.69
456.227	6978.69
456.334	7061.69
456.44	7208.69
456.547	7113.69
456.654	6974.69
456.761	7152.69
456.868	7281.69
456.975	7358.69
457.082	7202.69
457.189	7157.69
457.296	7345.69
457.402	7304.69
457.509	7233.69
457.616	7549.69
457.723	7637.69
457.83	7546.69
457.936	7535.69
458.043	7979.69
458.15	7664.69
458.257	7892.69
458.363	8026.69
458.47	8084.69
458.577	8240.69
458.684	8166.69
458.79	8371.69
458.897	8407.69
459.004	8786.69
459.11	8526.69
459.217	8679.69
459.324	8868.69
459.43	8913.69
459.537	9192.69
459.644	9111.69
459.75	9119.69
459.857	9470.69
459.964	9416.69
460.07	9418.69
460.177	9579.69
460.283	9627.69
460.39	9917.69
460.496	9518.69
460.603	9663.69
460.71	9616.69
460.816	9546.69
460.923	9413.69
461.029	9493.69
461.136	9540.69
461.242	9523.69
461.349	9488.69
461.455	9674.69
461.562	9847.69
461.668	9826.69
461.774	9692.69
461.881	9770.69
461.987	9954.69
462.094	10175.69
462.2	10202.69
462.307	10328.69
462.413	10142.69
462.519	10629.69
462.626	10831.69
462.732	10926.69
462.838	11384.69
462.945	11492.69
463.051	11436.69
463.157	11536.69
463.264	11093.69
463.37	11027.69
463.476	10774.69
463.583	10439.69
463.689	10448.69
463.795	10596.69
463.901	10474.69
464.008	10611.69
464.114	10494.69
464.22	10534.69
464.326	10441.69
464.433	10041.69
464.539	10134.69
464.645	9728.69
464.751	9718.69
464.857	9516.69
464.963	9177.69
465.07	9061.69
465.176	8639.69
465.282	8457.69
465.388	8296.69
465.494	7965.69
465.6	7958.69
465.706	7754.69
465.812	7692.69
465.918	7753.69
466.024	7497.69
466.131	7495.69
466.237	7392.69
466.343	7254.69
466.449	7161.69
466.555	7087.69
466.661	6882.69
466.767	6943.69
466.873	6827.69
466.979	7013.69
467.085	6768.69
467.191	6741.69
467.296	6828.69
467.402	6719.69
467.508	6724.69
467.614	6725.69
467.72	6481.69
467.826	6487.69
467.932	6398.69
468.038	6292.69
468.144	6313.69
468.25	6133.69
468.355	6137.69
468.461	6151.69
468.567	6178.69
468.673	6177.69
468.779	6150.69
468.885	6102.69
468.99	6063.69
469.096	6118.69
469.202	6124.69
469.308	6207.69
469.413	6268.69
469.519	6202.69
469.625	6301.69
469.731	6124.69
469.836	6211.69
469.942	6400.69
470.048	6336.69
470.153	6237.69
470.259	6275.69
470.365	6461.69
470.47	6268.69
470.576	6090.69
470.682	6201.69
470.787	5997.69
470.893	5914.69
470.999	6088.69
471.104	5917.69
471.21	5793.69
471.315	5777.69
471.421	5808.69
471.527	5796.69
471.632	5724.69
471.738	5679.69
471.843	5543.69
471.949	5505.69
472.054	5552.69
472.16	5347.69
472.265	5375.69
472.371	5386.69
472.476	5338.69
472.582	5439.69
472.687	5324.69
472.793	5158.69
472.898	5311.69
473.003	5253.69
473.109	5167.69
473.214	5061.69
473.32	5082.69
473.425	5186.69
473.53	5129.69
473.636	5107.69
473.741	5232.69
473.847	5081.69
473.952	5057.69
474.057	5099.69
474.163	5219.69
474.268	5022.69
474.373	5177.69
474.478	5073.69
474.584	4999.69
474.689	5029.69
474.794	5184.69
474.9	5339.69
475.005	4969.69
475.11	5222.69
475.215	5075.69
475.321	5045.69
475.426	5294.69
475.531	5202.69
475.636	5074.69
475.741	4990.69
475.846	5189.69
475.952	5308.69
476.057	5160.69
476.162	5378.69
476.267	5311.69
476.372	5446.69
476.477	5262.69
476.582	5374.69
476.687	5175.69
476.793	5259.69
476.898	5273.69
477.003	5299.69
477.108	5377.69
477.213	5378.69
477.318	5453.69
477.423	5569.69
477.528	5710.69
477.633	5672.69
477.738	5672.69
477.843	5780.69
477.948	5739.69
478.053	5718.69
478.158	5792.69
478.263	5896.69
478.368	5739.69
478.473	5969.69
478.578	6049.69
478.682	5932.69
478.787	6000.69
478.892	6003.69
478.997	6171.69
479.102	6184.69
479.207	6051.69
479.312	6191.69
479.417	6164.69
479.521	6115.69
479.626	6321.69
479.731	6135.69
479.836	6110.69
479.941	6476.69
480.045	6338.69
480.15	6536.69
480.255	6554.69
480.36	6519.69
480.465	6586.69
480.569	6774.69
480.674	6453.69
480.779	6382.69
480.883	6308.69
480.988	6437.69
481.093	6336.69
481.197	6258.69
481.302	6333.69
481.407	6281.69
481.511	7444.69
481.616	6446.69
481.721	6272.69
481.825	6421.69
481.93	6195.69
482.035	6322.69
482.139	6383.69
482.244	6348.69
482.348	6375.69
482.453	6370.69
482.557	6582.69
482.662	6388.69
482.767	6481.69
482.871	6404.69
482.976	6573.69
483.08	6535.69
483.185	6630.69
483.289	6653.69
483.394	6620.69
483.498	6674.69
483.603	6705.69
483.707	6728.69
483.811	6822.69
483.916	6930.69
484.02	6777.69
484.125	7016.69
484.229	6995.69
484.333	7062.69
484.438	6945.69
484.542	7018.69
484.647	7180.69
484.751	7282.69
484.855	7173.69
484.96	7269.69
485.064	7301.69
485.168	7407.69
485.273	7350.69
485.377	7484.69
485.481	7669.69
485.585	7523.69
485.69	7636.69
485.794	7787.69
485.898	7559.69
486.002	7584.69
486.107	7667.69
486.211	7617.69
486.315	7765.69
486.419	7720.69
486.524	7754.69
486.628	7691.69
486.732	7743.69
486.836	7660.69
486.94	7843.69
487.044	7823.69
487.148	7689.69
487.253	7791.69
487.357	7902.69
487.461	7940.69
487.565	7790.69
487.669	7761.69
487.773	7625.69
487.877	7788.69
487.981	7764.69
488.085	7849.69
488.189	7802.69
488.293	7899.69
488.397	8304.69
488.501	7864.69
488.605	7735.69
488.709	7776.69
488.813	7682.69
488.917	7816.69
489.021	7721.69
489.125	8004.69
489.229	7770.69
489.333	8057.69
489.437	7939.69
489.541	7922.69
489.645	7910.69
489.749	8027.69
489.853	7955.69
489.956	7988.69
490.06	8032.69
490.164	7851.69
490.268	7953.69
490.372	8003.69
490.476	7905.69
490.579	7970.69
490.683	8617.69
490.787	8003.69
490.891	7957.69
490.995	7975.69
491.098	8044.69
491.202	8012.69
491.306	8013.69
491.41	7948.69
491.513	7872.69
491.617	8038.69
491.721	8193.69
491.824	8030.69
491.928	7985.69
492.032	8213.69
492.136	8063.69
492.239	7849.69
492.343	8131.69
492.446	8329.69
492.55	8057.69
492.654	7940.69
492.757	8042.69
492.861	8076.69
492.965	8077.69
493.068	8044.69
493.172	7939.69
493.275	7933.69
493.379	8121.69
493.482	8149.69
493.586	8217.69
493.689	8304.69
493.793	8117.69
493.896	8230.69
494	8016.69
494.103	8227.69
494.207	8423.69
494.31	8521.69
494.414	8168.69
494.517	8093.69
494.621	7990.69
494.724	8098.69
494.828	8136.69
494.931	7988.69
495.034	7952.69
495.138	8059.69
495.241	7977.69
495.345	8574.69
495.448	8202.69
495.551	7951.69
495.655	7822.69
495.758	7801.69
495.861	7742.69
495.965	7996.69
496.068	8015.69
496.171	8026.69
496.274	7944.69
496.378	7995.69
496.481	8011.69
496.584	7942.69
496.687	8042.69
496.791	8249.69
496.894	8143.69
496.997	8201.69
497.1	8197.69
497.204	8284.69
497.307	8307.69
497.41	8746.69
497.513	8792.69
497.616	8575.69
497.719	8583.69
497.823	8638.69
497.926	8857.69
498.029	8956.69
498.132	9202.69
498.235	9385.69
498.338	9535.69
498.441	9754.69
498.544	9848.69
498.647	10043.69
498.75	10412.69
498.853	10712.69
498.956	10881.69
499.059	11313.69
499.163	11586.69
499.266	11881.69
499.369	12335.69
499.471	12673.69
499.574	13187.69
499.677	13667.69
499.78	14242.69
499.883	14541.69
499.986	14541.69
500.089	14541.69
500.192	14541.69
500.295	14541.69
500.398	14541.69
500.501	14541.69
500.604	14541.69
500.707	14541.69
500.809	14530.69
500.912	14128.69
501.015	13607.69
501.118	12943.69
501.221	12441.69
501.324	11808.69
501.426	11431.69
501.529	10876.69
501.632	10564.69
501.735	10157.69
501.837	9969.69
501.94	9548.69
502.043	9459.69
502.146	9279.69
502.248	9071.69
502.351	8886.69
502.454	8812.69
502.557	8498.69
502.659	8335.69
502.762	8169.69
502.865	7994.69
502.967	7908.69
503.07	7764.69
503.173	7632.69
503.275	7554.69
503.378	7532.69
503.48	7388.69
503.583	7378.69
503.686	7253.69
503.788	7521.69
503.891	7248.69
503.993	7474.69
504.096	7179.69
504.198	7284.69
504.301	7210.69
504.403	7195.69
504.506	7057.69
504.608	6975.69
504.711	7019.69
504.813	6915.69
504.916	6682.69
505.018	6524.69
505.121	6418.69
505.223	6345.69
505.326	6174.69
505.428	6233.69
505.531	6044.69
505.633	6001.69
505.735	5950.69
505.838	5844.69
505.94	5743.69
506.042	5824.69
506.145	5847.69
506.247	5779.69
506.35	5685.69
506.452	5765.69
506.554	5663.69
506.656	5592.69
506.759	5619.69
506.861	5563.69
506.963	5583.69
507.066	5605.69
507.168	5576.69
507.27	5530.69
507.372	5395.69
507.475	5429.69
507.577	5387.69
507.679	5403.69
507.781	5234.69
507.883	5299.69
507.986	5251.69
508.088	5258.69
508.19	5296.69
508.292	5173.69
508.394	5218.69
508.496	5224.69
508.598	5175.69
508.701	5081.69
508.803	5205.69
508.905	5101.69
509.007	5078.69
509.109	5226.69
509.211	5096.69
509.313	5116.69
509.415	5076.69
509.517	5024.69
509.619	5019.69
509.721	5090.69
509.823	4971.69
509.925	5164.69
510.027	5022.69
510.129	4981.69
510.231	5069.69
510.333	4892.69
510.435	5021.69
510.537	5080.69
510.639	5146.69
510.741	5061.69
510.843	5003.69
510.945	5026.69
511.047	5051.69
511.148	4944.69
511.25	4984.69
511.352	5014.69
511.454	4973.69
511.556	5102.69
511.658	4962.69
511.76	5108.69
511.861	5179.69
511.963	4874.69
512.065	5025.69
512.167	4912.69
512.268	5101.69
512.37	5050.69
512.472	5012.69
512.574	5076.69
512.676	5083.69
512.777	5037.69
512.879	5012.69
512.981	4946.69
513.082	5007.69
513.184	5044.69
513.286	5496.69
513.387	5237.69
513.489	5199.69
513.591	5163.69
513.692	5296.69
513.794	5208.69
513.896	5003.69
513.997	5148.69
514.099	5161.69
514.2	5239.69
514.302	5300.69
514.404	5297.69
514.505	5248.69
514.607	5321.69
514.708	5434.69
514.81	5388.69
514.911	5456.69
515.013	5464.69
515.114	5440.69
515.216	5421.69
515.317	5539.69
515.419	5547.69
515.52	5571.69
515.622	5630.69
515.723	5804.69
515.825	5961.69
515.926	5819.69
516.027	5889.69
516.129	5957.69
516.23	6066.69
516.332	6142.69
516.433	6208.69
516.534	6347.69
516.636	6363.69
516.737	6452.69
516.838	7393.69
516.94	6707.69
517.041	6866.69
517.142	6924.69
517.244	7142.69
517.345	7192.69
517.446	7191.69
517.547	7225.69
517.649	7310.69
517.75	7190.69
517.851	7155.69
517.952	7505.69
518.054	7217.69
518.155	7151.69
518.256	6940.69
518.357	7056.69
518.458	6731.69
518.56	6826.69
518.661	6706.69
518.762	6611.69
518.863	6616.69
518.964	6514.69
519.065	6293.69
519.166	6299.69
519.268	6263.69
519.369	6528.69
519.47	6123.69
519.571	6184.69
519.672	6084.69
519.773	6007.69
519.874	6006.69
519.975	6125.69
520.076	6040.69
520.177	6108.69
520.278	6047.69
520.379	5919.69
520.48	5908.69
520.581	5899.69
520.682	5730.69
520.783	5706.69
520.884	5909.69
520.985	5954.69
521.086	5766.69
521.187	5832.69
521.288	5825.69
521.389	5846.69
521.489	5792.69
521.59	5878.69
521.691	5760.69
521.792	5733.69
521.893	5815.69
521.994	5819.69
522.095	5724.69
522.195	5801.69
522.296	5847.69
522.397	5867.69
522.498	5730.69
522.599	5740.69
522.699	5772.69
522.8	5694.69
522.901	5871.69
523.002	5737.69
523.102	6031.69
523.203	5891.69
523.304	5999.69
523.405	5843.69
523.505	5842.69
523.606	5875.69
523.707	5854.69
523.807	5827.69
523.908	5865.69
524.009	5856.69
524.109	5866.69
524.21	5792.69
524.31	5788.69
524.411	5977.69
524.512	5955.69
524.612	5813.69
524.713	5961.69
524.813	5793.69
524.914	6203.69
525.014	10216.69
525.115	6131.69
525.216	5811.69
525.316	5829.69
525.417	5823.69
525.517	5791.69
525.618	5760.69
525.718	5805.69
525.819	5806.69
525.919	5804.69
526.019	5752.69
526.12	5901.69
526.22	5697.69
526.321	5706.69
526.421	5699.69
526.522	5688.69
526.622	5635.69
526.722	5655.69
526.823	5769.69
526.923	5684.69
527.023	5861.69
527.124	5703.69
527.224	5777.69
527.324	5628.69
527.425	5726.69
527.525	5596.69
527.625	5684.69
527.726	5836.69
527.826	5801.69
527.926	5726.69
528.026	5725.69
528.127	5769.69
528.227	5866.69
528.327	5814.69
528.427	5854.69
528.528	5794.69
528.628	5826.69
528.728	5833.69
528.828	5809.69
528.928	5770.69
529.029	5746.69
529.129	5832.69
529.229	5791.69
529.329	5760.69
529.429	5788.69
529.529	5814.69
529.629	5754.69
529.729	5728.69
529.829	5843.69
529.93	5625.69
530.03	5683.69
530.13	5510.69
530.23	5596.69
530.33	5616.69
530.43	5565.69
530.53	5569.69
530.63	5560.69
530.73	5502.69
530.83	5403.69
530.93	5456.69
531.03	5478.69
531.13	5557.69
531.23	5540.69
531.33	5529.69
531.429	5556.69
531.529	5473.69
531.629	5486.69
531.729	5418.69
531.829	5483.69
531.929	5462.69
532.029	5415.69
532.129	5359.69
532.229	5493.69
532.328	5431.69
532.428	5351.69
532.528	5238.69
532.628	5394.69
532.728	5399.69
532.827	5231.69
532.927	5380.69
533.027	5285.69
533.127	5442.69
533.227	5401.69
533.326	5361.69
533.426	5108.69
533.526	5363.69
533.625	5467.69
533.725	5502.69
533.825	5160.69
533.924	5076.69
534.024	5005.69
534.124	5092.69
534.223	5098.69
534.323	5410.69
534.423	5059.69
534.522	5151.69
534.622	5022.69
534.722	4949.69
534.821	4996.69
534.921	5000.69
535.02	4917.69
535.12	5063.69
535.219	5075.69
535.319	4988.69
535.419	4912.69
535.518	4856.69
535.618	4865.69
535.717	4935.69
535.817	4820.69
535.916	4704.69
536.016	4788.69
536.115	4666.69
536.215	4746.69
536.314	4573.69
536.413	4571.69
536.513	4626.69
536.612	4514.69
536.712	4495.69
536.811	4552.69
536.91	4449.69
537.01	4467.69
537.109	4597.69
537.209	4503.69
537.308	4465.69
537.407	4504.69
537.507	4476.69
537.606	4452.69
537.705	4528.69
537.805	4452.69
537.904	4348.69
538.003	4473.69
538.102	4520.69
538.202	4454.69
538.301	4561.69
538.4	4500.69
538.499	4423.69
538.599	4430.69
538.698	4611.69
538.797	4475.69
538.896	4557.69
538.995	4426.69
539.095	4420.69
539.194	4565.69
539.293	4392.69
539.392	4340.69
539.491	4315.69
539.59	4278.69
539.689	4337.69
539.789	4375.69
539.888	4072.69
539.987	4144.69
540.086	4230.69
540.185	4154.69
540.284	4184.69
540.383	4256.69
540.482	4091.69
540.581	4218.69
540.68	4282.69
540.779	4310.69
540.878	4168.69
540.977	4258.69
541.076	4212.69
541.175	4205.69
541.274	4434.69
541.373	4306.69
541.472	4259.69
541.571	4113.69
541.67	5383.69
541.769	4323.69
541.868	4127.69
541.966	4313.69
542.065	4105.69
542.164	4084.69
542.263	4151.69
542.362	4123.69
542.461	4072.69
542.56	4037.69
542.658	4130.69
542.757	3962.69
542.856	3920.69
542.955	3965.69
543.054	3961.69
543.152	4084.69
543.251	3964.69
543.35	4171.69
543.449	4049.69
543.547	4070.69
543.646	4044.69
543.745	4061.69
543.843	4163.69
543.942	4205.69
544.041	4022.69
544.14	4114.69
544.238	4136.69
544.337	4300.69
544.436	4102.69
544.534	4304.69
544.633	4181.69
544.731	4042.69
544.83	4161.69
544.929	4025.69
545.027	4051.69
545.126	4068.69
545.224	4160.69
545.323	4062.69
545.421	4121.69
545.52	4204.69
545.619	4173.69
545.717	4104.69
545.816	4300.69
545.914	4153.69
546.013	4398.69
546.111	4283.69
546.209	4122.69
546.308	4056.69
546.406	4023.69
546.505	4376.69
546.603	4127.69
546.702	4102.69
546.8	4095.69
546.899	4004.69
546.997	4084.69
547.095	4095.69
547.194	4090.69
547.292	4105.69
547.39	4148.69
547.489	4087.69
547.587	4353.69
547.685	4095.69
547.784	4394.69
547.882	4156.69
547.98	4068.69
548.079	4218.69
548.177	4062.69
548.275	4094.69
548.373	4295.69
548.472	4038.69
548.57	4059.69
548.668	4231.69
548.766	4093.69
548.864	4187.69
548.963	4194.69
549.061	4323.69
549.159	4063.69
549.257	4176.69
549.355	4157.69
549.454	4109.69
549.552	4202.69
549.65	4276.69
549.748	4168.69
549.846	4099.69
549.944	4091.69
550.042	4116.69
550.14	4079.69
550.238	4038.69
550.336	4013.69
550.434	3984.69
550.532	4040.69
550.631	4194.69
550.729	4023.69
550.827	3955.69
550.925	4056.69
551.023	3958.69
551.121	3973.69
551.218	3963.69
551.316	3885.69
551.414	4009.69
551.512	3987.69
551.61	3955.69
551.708	4043.69
551.806	4063.69
551.904	4034.69
552.002	4075.69
552.1	4024.69
552.198	4171.69
552.296	4350.69
552.393	4348.69
552.491	4419.69
552.589	4345.69
552.687	4412.69
552.785	4344.69
552.882	4567.69
552.98	4708.69
553.078	4487.69
553.176	4506.69
553.274	4397.69
553.371	4466.69
553.469	4437.69
553.567	4320.69
553.665	4333.69
553.762	4795.69
553.86	4376.69
553.958	4376.69
554.055	4343.69
554.153	4350.69
554.251	4177.69
554.348	4150.69
554.446	4131.69
554.544	4060.69
554.641	4486.69
554.739	4206.69
554.837	4096.69
554.934	4023.69
555.032	4100.69
555.129	3939.69
555.227	4195.69
555.324	8230.69
555.422	4224.69
555.519	3909.69
555.617	3913.69
555.715	3791.69
555.812	5442.69
555.91	3923.69
556.007	3943.69
556.105	3752.69
556.202	3833.69
556.299	3740.69
556.397	3790.69
556.494	3770.69
556.592	3743.69
556.689	3767.69
556.787	3749.69
556.884	3690.69
556.981	3743.69
557.079	3651.69
557.176	3797.69
557.273	3781.69
557.371	3768.69
557.468	3728.69
557.566	3806.69
557.663	3679.69
557.76	3678.69
557.857	3720.69
557.955	3779.69
558.052	3793.69
558.149	3864.69
558.247	3863.69
558.344	3707.69
558.441	3641.69
558.538	3710.69
558.636	3624.69
558.733	3748.69
558.83	3771.69
558.927	3743.69
559.024	3745.69
559.122	3774.69
559.219	3805.69
559.316	3862.69
559.413	3852.69
559.51	3757.69
559.607	3656.69
559.704	3725.69
559.801	3839.69
559.899	3722.69
559.996	3954.69
560.093	3830.69
560.19	3688.69
560.287	3740.69
560.384	3951.69
560.481	3726.69
560.578	3787.69
560.675	3858.69
560.772	3903.69
560.869	3808.69
560.966	3944.69
561.063	3868.69
561.16	3835.69
561.257	3764.69
561.354	3833.69
561.451	3742.69
561.548	3844.69
561.645	4104.69
561.742	3714.69
561.838	3800.69
561.935	3868.69
562.032	3896.69
562.129	3810.69
562.226	3874.69
562.323	3925.69
562.42	3852.69
562.516	3955.69
562.613	3849.69
562.71	3885.69
562.807	4528.69
562.904	3921.69
563	3874.69
563.097	3892.69
563.194	3916.69
563.291	3904.69
563.387	3913.69
563.484	3934.69
563.581	4040.69
563.678	3956.69
563.774	4337.69
563.871	4086.69
563.968	4090.69
564.064	4117.69
564.161	4121.69
564.258	4092.69
564.354	4136.69
564.451	4247.69
564.548	4254.69
564.644	4277.69
564.741	4330.69
564.837	4345.69
564.934	4313.69
565.031	4385.69
565.127	4419.69
565.224	4450.69
565.32	4694.69
565.417	4536.69
565.513	4746.69
565.61	4761.69
565.706	4845.69
565.803	5059.69
565.899	4976.69
565.996	5169.69
566.092	5285.69
566.189	5392.69
566.285	5608.69
566.382	5764.69
566.478	5880.69
566.574	6026.69
566.671	5964.69
566.767	6075.69
566.864	5933.69
566.96	6070.69
567.056	5995.69
567.153	6343.69
567.249	6275.69
567.345	6553.69
567.442	6549.69
567.538	6611.69
567.634	6666.69
567.731	6669.69
567.827	6728.69
567.923	6763.69
568.019	6367.69
568.116	6067.69
568.212	5953.69
568.308	5791.69
568.404	5696.69
568.501	5395.69
568.597	5343.69
568.693	5131.69
568.789	5547.69
568.885	4836.69
568.982	4738.69
569.078	4658.69
569.174	4631.69
569.27	4358.69
569.366	4440.69
569.462	4298.69
569.558	4270.69
569.655	4156.69
569.751	4078.69
569.847	4053.69
569.943	4064.69
570.039	4016.69
570.135	4490.69
570.231	3938.69
570.327	4146.69
570.423	4139.69
570.519	4000.69
570.615	4005.69
570.711	4055.69
570.807	4086.69
570.903	3975.69
570.999	4008.69
571.095	3993.69
571.191	3986.69
571.287	3902.69
571.383	3969.69
571.479	3783.69
571.574	3782.69
571.67	3713.69
571.766	3828.69
571.862	3613.69
571.958	3579.69
572.054	3598.69
572.15	3438.69
572.246	3439.69
572.341	3567.69
572.437	3400.69
572.533	3456.69
572.629	3433.69
572.725	3326.69
572.82	3222.69
572.916	3482.69
573.012	3308.69
573.108	3300.69
573.203	3263.69
573.299	3208.69
573.395	3155.69
573.49	3114.69
573.586	3230.69
573.682	3092.69
573.778	3367.69
573.873	3139.69
573.969	3160.69
574.065	3043.69
574.16	3133.69
574.256	3117.69
574.351	3149.69
574.447	3042.69
574.543	3126.69
574.638	3147.69
574.734	3183.69
574.829	3299.69
574.925	3055.69
575.02	2983.69
575.116	3027.69
575.212	3061.69
575.307	3143.69
575.403	3016.69
575.498	3028.69
575.594	2955.69
575.689	3134.69
575.784	3011.69
575.88	2991.69
575.975	3120.69
576.071	2878.69
576.166	2839.69
576.262	2848.69
576.357	2843.69
576.452	2998.69
576.548	2784.69
576.643	2879.69
576.739	2911.69
576.834	2818.69
576.929	2867.69
577.025	3388.69
577.12	2656.69
577.215	2719.69
577.311	2736.69
577.406	2786.69
577.501	2905.69
577.597	2626.69
577.692	2840.69
577.787	2768.69
577.882	2684.69
577.978	2714.69
578.073	2587.69
578.168	2549.69
578.263	2538.69
578.358	2559.69
578.454	2541.69
578.549	2479.69
578.644	2437.69
578.739	2581.69
578.834	2514.69
578.929	2441.69
579.025	2489.69
579.12	2641.69
579.215	2661.69
579.31	2667.69
579.405	2491.69
579.5	2498.69
579.595	2457.69
579.69	2411.69
579.785	2375.69
579.88	2409.69
579.975	2460.69
580.07	2395.69
580.165	2457.69
580.26	2521.69
580.355	2426.69
580.45	2328.69
580.545	2331.69
580.64	2351.69
580.735	2424.69
580.83	2371.69
580.925	2347.69
581.02	2239.69
581.115	2313.69
581.21	2252.69
581.305	2333.69
581.4	2275.69
581.495	2293.69
581.589	2332.69
581.684	2164.69
581.779	2307.69
581.874	2271.69
581.969	2247.69
582.064	2150.69
582.158	2227.69
582.253	2112.69
582.348	2167.69
582.443	2208.69
582.537	2188.69
582.632	2315.69
582.727	2179.69
582.822	2176.69
582.916	2151.69
583.011	2109.69
583.106	2234.69
583.201	2075.69
583.295	2131.69
583.39	2168.69
583.485	2054.69
583.579	4133.69
583.674	2265.69
583.769	2240.69
583.863	2098.69
583.958	2088.69
584.052	2000.69
584.147	2016.69
584.242	1995.69
584.336	2095.69
584.431	2169.69
584.525	2026.69
584.62	2259.69
584.714	2097.69
584.809	1994.69
584.903	2067.69
584.998	2060.69
585.092	1912.69
585.187	2010.69
585.281	1990.69
585.376	2005.69
585.47	2016.69
585.565	2005.69
585.659	1925.69
585.754	1972.69
585.848	2016.69
585.942	1918.69
586.037	1925.69
586.131	4082.69
586.226	2072.69
586.32	1930.69
586.414	1812.69
586.509	2025.69
586.603	1972.69
586.697	1898.69
586.792	1899.69
586.886	1800.69
586.98	1971.69
587.075	1855.69
587.169	1824.69
587.263	1984.69
587.357	1893.69
587.452	1837.69
587.546	1876.69
587.64	1782.69
587.734	1864.69
587.829	1832.69
587.923	1798.69
588.017	1849.69
588.111	1788.69
588.205	1982.69
588.3	1850.69
588.394	1718.69
588.488	1759.69
588.582	1884.69
588.676	1895.69
588.77	2213.69
588.864	3129.69
588.958	3261.69
589.052	2828.69
589.147	2336.69
589.241	2038.69
589.335	1910.69
589.429	2479.69
589.523	2790.69
589.617	2640.69
589.711	2229.69
589.805	1999.69
589.899	1915.69
589.993	1761.69
590.087	1723.69
590.181	1705.69
590.275	1751.69
590.369	1768.69
590.462	1745.69
590.556	1710.69
590.65	1696.69
590.744	1833.69
590.838	1755.69
590.932	1768.69
591.026	1833.69
591.12	1924.69
591.214	1799.69
591.307	1802.69
591.401	1820.69
591.495	1863.69
591.589	1754.69
591.683	1862.69
591.777	1873.69
591.87	2186.69
591.964	1980.69
592.058	1856.69
592.152	1908.69
592.245	1904.69
592.339	1953.69
592.433	2021.69
592.527	1979.69
592.62	1921.69
592.714	1977.69
592.808	2081.69
592.901	2112.69
592.995	1954.69
593.089	2234.69
593.182	2105.69
593.276	1974.69
593.37	1996.69
593.463	1963.69
593.557	2052.69
593.65	1970.69
593.744	2015.69
593.837	2128.69
593.931	1964.69
594.025	5531.69
594.118	2306.69
594.212	1991.69
594.305	2002.69
594.399	2048.69
594.492	2251.69
594.586	1881.69
594.679	1918.69
594.773	1815.69
594.866	1953.69
594.96	1913.69
595.053	1717.69
595.146	1738.69
595.24	1765.69
595.333	1682.69
595.427	1623.69
595.52	1686.69
595.614	1865.69
595.707	1674.69
595.8	1617.69
595.894	1637.69
595.987	1534.69
596.08	1494.69
596.174	1944.69
596.267	1667.69
596.36	1642.69
596.454	1721.69
596.547	1656.69
596.64	1499.69
596.733	1444.69
596.827	1601.69
596.92	1524.69
597.013	1383.69
597.106	1403.69
597.2	1417.69
597.293	1384.69
597.386	1642.69
597.479	1533.69
597.572	1457.69
597.666	1408.69
597.759	1380.69
597.852	1471.69
597.945	1394.69
598.038	1415.69
598.131	1348.69
598.224	1337.69
598.317	1505.69
598.411	1372.69
598.504	1302.69
598.597	1476.69
598.69	1352.69
598.783	1351.69
598.876	1402.69
598.969	1346.69
599.062	1305.69
599.155	1419.69
599.248	1407.69
599.341	1369.69
599.434	1337.69
599.527	1488.69
599.62	1313.69
599.713	1354.69
599.806	1458.69
599.899	1506.69
599.991	1306.69
600.084	1617.69
600.177	1289.69
600.27	1270.69
600.363	1475.69
600.456	1346.69
600.549	1368.69
600.642	1186.69
600.734	1328.69
600.827	1317.69
600.92	1437.69
601.013	1354.69
601.106	1361.69
601.199	1310.69
601.291	1333.69
601.384	1291.69
601.477	1472.69
601.57	1386.69
601.662	1269.69
601.755	1366.69
601.848	1382.69
601.94	1290.69
602.033	1412.69
602.126	1295.69
602.219	1346.69
602.311	1451.69
602.404	1324.69
602.497	1287.69
602.589	1281.69
602.682	1303.69
602.774	1378.69
602.867	1324.69
602.96	1281.69
603.052	1328.69
603.145	1222.69
603.237	1253.69
603.33	1331.69
603.422	1440.69
603.515	1216.69
603.608	1296.69
603.7	1308.69
603.793	1303.69
603.885	1296.69
603.978	1293.69
604.07	1257.69
604.163	1230.69
604.255	1254.69
604.347	1190.69
604.44	1193.69
604.532	1252.69
604.625	1271.69
604.717	1177.69
604.81	1293.69
604.902	1259.69
604.994	1203.69
605.087	1241.69
605.179	1244.69
605.271	1258.69
605.364	1240.69
605.456	1272.69
605.548	1298.69
605.641	1188.69
605.733	1188.69
605.825	1352.69
605.918	1169.69
606.01	1384.69
606.102	1683.69
606.194	1242.69
606.287	1329.69
606.379	1236.69
606.471	1242.69
606.563	1235.69
606.655	1301.69
606.748	1333.69
606.84	1225.69
606.932	1295.69
607.024	1259.69
607.116	1168.69
607.208	1192.69
607.301	1317.69
607.393	1183.69
607.485	1234.69
607.577	1250.69
607.669	1387.69
607.761	1296.69
607.853	1516.69
607.945	1207.69
608.037	1149.69
608.129	1203.69
608.221	1226.69
608.313	1151.69
608.405	1287.69
608.497	1281.69
608.589	1177.69
608.681	1227.69
608.773	1292.69
608.865	1229.69
608.957	1174.69
609.049	1205.69
609.141	1311.69
609.233	1194.69
609.325	1163.69
609.417	1233.69
609.509	1228.69
609.601	1334.69
609.693	1303.69
609.784	1182.69
609.876	1172.69
609.968	1252.69
610.06	3157.69
610.152	1365.69
610.244	1464.69
610.335	1177.69
610.427	1132.69
610.519	1171.69
610.611	1224.69
610.702	1160.69
610.794	1131.69
610.886	1289.69
610.978	1092.69
611.069	1556.69
611.161	1164.69
611.253	1181.69
611.344	1031.69
611.436	1058.69
611.528	1113.69
611.62	1010.69
611.711	1027.69
611.803	1024.69
611.894	1005.69
611.986	974.69
612.078	1057.69
612.169	964.69
612.261	975.69
612.352	932.69
612.444	883.69
612.536	986.69
612.627	907.69
612.719	864.69
612.81	834.69
612.902	809.69
612.993	942.69
613.085	842.69
613.176	764.69
613.268	903.69
613.359	789.69
613.451	743.69
613.542	825.69
613.634	748.69
613.725	772.69
613.816	847.69
613.908	725.69
613.999	680.69
614.091	628.69
614.182	648.69
614.273	664.69
614.365	616.69
614.456	676.69
614.547	598.69
614.639	586.69
614.73	620.69
614.821	667.69
614.913	521.69
615.004	484.69
615.095	499.69
615.187	435.69
