Data from 7g_HRC06701__9__131.txt Node

Date: Thu Apr 18 01:49:58 CDT 2024
User: Estudiantes 2
Spectrometer: HR+C0670
Trigger mode: 4
Integration Time (sec): 1.000000E0
Scans to average: 1
Electric dark correction enabled: true
Nonlinearity correction enabled: false
Boxcar width: 0
XAxis mode: Wavelengths
Number of Pixels in Spectrum: 2048
>>>>>Begin Spectral Data<<<<<
407.81	-121.94
407.921	-121.94
408.032	-121.94
408.143	-113.94
408.254	-70.94
408.365	11.06
408.476	222.06
408.587	-6.94
408.699	-26.94
408.81	-19.94
408.921	-26.94
409.032	2.06
409.143	19.06
409.254	4.06
409.365	109.06
409.476	-34.94
409.587	-25.94
409.698	81.06
409.809	84.06
409.92	-43.94
410.031	-3.94
410.142	79.06
410.253	12.06
410.364	50.06
410.475	1096.06
410.585	5142.06
410.696	5606.06
410.807	5524.06
410.918	5377.06
411.029	5547.06
411.14	5633.06
411.251	5560.06
411.362	5603.06
411.472	5722.06
411.583	5624.06
411.694	5682.06
411.805	5678.06
411.916	5938.06
412.026	5652.06
412.137	5700.06
412.248	5657.06
412.359	5743.06
412.47	5620.06
412.58	5533.06
412.691	5634.06
412.802	5563.06
412.912	5593.06
413.023	5621.06
413.134	5510.06
413.245	5585.06
413.355	5591.06
413.466	5458.06
413.577	5598.06
413.687	5708.06
413.798	5491.06
413.909	5721.06
414.019	5652.06
414.13	5630.06
414.24	5569.06
414.351	5621.06
414.462	5829.06
414.572	5636.06
414.683	5639.06
414.793	5736.06
414.904	5852.06
415.014	5701.06
415.125	5631.06
415.235	5644.06
415.346	5783.06
415.456	5803.06
415.567	5568.06
415.677	5601.06
415.788	5656.06
415.898	5541.06
416.009	5555.06
416.119	5643.06
416.23	5657.06
416.34	5526.06
416.45	5605.06
416.561	6187.06
416.671	5653.06
416.782	5573.06
416.892	5713.06
417.002	5624.06
417.113	5722.06
417.223	5675.06
417.333	5733.06
417.444	5768.06
417.554	5864.06
417.664	5891.06
417.775	5685.06
417.885	5819.06
417.995	5862.06
418.106	6096.06
418.216	5931.06
418.326	6170.06
418.436	6091.06
418.547	6160.06
418.657	6169.06
418.767	6314.06
418.877	6204.06
418.987	6260.06
419.098	6308.06
419.208	6428.06
419.318	6347.06
419.428	6405.06
419.538	6224.06
419.648	6400.06
419.759	6411.06
419.869	6262.06
419.979	6246.06
420.089	6460.06
420.199	6354.06
420.309	6286.06
420.419	6297.06
420.529	6298.06
420.639	6568.06
420.749	6525.06
420.859	6505.06
420.969	6648.06
421.079	6756.06
421.189	6608.06
421.299	6407.06
421.409	6599.06
421.519	6780.06
421.629	6785.06
421.739	6639.06
421.849	6773.06
421.959	6776.06
422.069	6776.06
422.179	6762.06
422.289	6993.06
422.399	6998.06
422.509	7116.06
422.619	9946.06
422.729	7273.06
422.838	7110.06
422.948	7193.06
423.058	7159.06
423.168	7248.06
423.278	7329.06
423.388	7437.06
423.498	7524.06
423.607	7469.06
423.717	7804.06
423.827	7794.06
423.937	7708.06
424.046	7709.06
424.156	7789.06
424.266	7716.06
424.376	8013.06
424.485	7842.06
424.595	7827.06
424.705	7948.06
424.815	7897.06
424.924	8412.06
425.034	8039.06
425.144	8074.06
425.253	8081.06
425.363	8270.06
425.473	8277.06
425.582	8025.06
425.692	8238.06
425.801	8232.06
425.911	8457.06
426.021	8405.06
426.13	8677.06
426.24	8594.06
426.349	8748.06
426.459	8576.06
426.568	8692.06
426.678	8580.06
426.787	8786.06
426.897	8688.06
427.006	8781.06
427.116	8822.06
427.225	9006.06
427.335	9147.06
427.444	8893.06
427.554	8865.06
427.663	9013.06
427.773	8973.06
427.882	9086.06
427.992	9088.06
428.101	9312.06
428.21	9180.06
428.32	9510.06
428.429	9245.06
428.539	9653.06
428.648	9524.06
428.757	9292.06
428.867	9546.06
428.976	9900.06
429.085	9639.06
429.195	9804.06
429.304	9725.06
429.413	9843.06
429.523	9823.06
429.632	9861.06
429.741	9922.06
429.85	9924.06
429.96	9975.06
430.069	9967.06
430.178	10047.06
430.287	10372.06
430.397	10236.06
430.506	10248.06
430.615	10182.06
430.724	10362.06
430.833	10280.06
430.943	10354.06
431.052	10347.06
431.161	10456.06
431.27	10632.06
431.379	10680.06
431.488	11109.06
431.597	10764.06
431.706	10915.06
431.816	10887.06
431.925	10884.06
432.034	10839.06
432.143	11034.06
432.252	10948.06
432.361	10942.06
432.47	10908.06
432.579	10853.06
432.688	10862.06
432.797	10988.06
432.906	10835.06
433.015	10964.06
433.124	11136.06
433.233	11147.06
433.342	10918.06
433.451	11107.06
433.56	11084.06
433.669	10997.06
433.778	11049.06
433.886	11239.06
433.995	11276.06
434.104	11500.06
434.213	11355.06
434.322	11577.06
434.431	11617.06
434.54	11839.06
434.649	12214.06
434.757	11916.06
434.866	11720.06
434.975	11761.06
435.084	11648.06
435.193	11346.06
435.301	11559.06
435.41	11376.06
435.519	11363.06
435.628	10729.06
435.737	10884.06
435.845	10632.06
435.954	10322.06
436.063	10532.06
436.171	10495.06
436.28	10483.06
436.389	10685.06
436.498	10236.06
436.606	10292.06
436.715	10485.06
436.823	10148.06
436.932	10000.06
437.041	9991.06
437.149	9970.06
437.258	9847.06
437.367	9624.06
437.475	9690.06
437.584	9969.06
437.692	9751.06
437.801	11211.06
437.91	9634.06
438.018	9516.06
438.127	9546.06
438.235	9550.06
438.344	9651.06
438.452	9622.06
438.561	9534.06
438.669	9531.06
438.778	9225.06
438.886	9549.06
438.995	9263.06
439.103	9531.06
439.212	9419.06
439.32	9444.06
439.428	9411.06
439.537	9407.06
439.645	9592.06
439.754	9571.06
439.862	9367.06
439.97	9473.06
440.079	9575.06
440.187	9412.06
440.295	9712.06
440.404	9622.06
440.512	9559.06
440.62	9886.06
440.729	9724.06
440.837	9804.06
440.945	10610.06
441.054	10156.06
441.162	9990.06
441.27	10336.06
441.378	10451.06
441.487	10425.06
441.595	10793.06
441.703	10525.06
441.811	10204.06
441.92	10251.06
442.028	9850.06
442.136	10081.06
442.244	10052.06
442.352	10092.06
442.461	9743.06
442.569	9905.06
442.677	9890.06
442.785	10079.06
442.893	9775.06
443.001	9829.06
443.109	9844.06
443.217	9937.06
443.325	10022.06
443.434	10685.06
443.542	10394.06
443.65	10349.06
443.758	10462.06
443.866	10416.06
443.974	10787.06
444.082	10621.06
444.19	10903.06
444.298	10929.06
444.406	11117.06
444.514	11428.06
444.622	11335.06
444.73	11348.06
444.838	11259.06
444.946	11188.06
445.054	10844.06
445.161	10764.06
445.269	10522.06
445.377	10652.06
445.485	10456.06
445.593	10397.06
445.701	10327.06
445.809	10352.06
445.917	10282.06
446.025	10206.06
446.132	10296.06
446.24	10242.06
446.348	10107.06
446.456	10085.06
446.564	10216.06
446.671	10118.06
446.779	10042.06
446.887	9929.06
446.995	9954.06
447.102	10185.06
447.21	9937.06
447.318	10101.06
447.426	9792.06
447.533	10259.06
447.641	11204.06
447.749	9984.06
447.856	10052.06
447.964	10107.06
448.072	10129.06
448.179	10017.06
448.287	10091.06
448.395	10143.06
448.502	10010.06
448.61	10053.06
448.718	10073.06
448.825	10111.06
448.933	9957.06
449.04	10157.06
449.148	10337.06
449.256	10416.06
449.363	10311.06
449.471	10476.06
449.578	10505.06
449.686	10508.06
449.793	10705.06
449.901	10596.06
450.008	10698.06
450.116	10826.06
450.223	10937.06
450.331	11088.06
450.438	11175.06
450.546	11151.06
450.653	11203.06
450.76	11430.06
450.868	11300.06
450.975	11555.06
451.083	11464.06
451.19	11616.06
451.297	11395.06
451.405	11526.06
451.512	11579.06
451.619	11616.06
451.727	11823.06
451.834	11835.06
451.941	11710.06
452.049	11793.06
452.156	11833.06
452.263	11920.06
452.371	12011.06
452.478	11978.06
452.585	12096.06
452.692	11991.06
452.8	12129.06
452.907	12316.06
453.014	12200.06
453.121	12293.06
453.229	12295.06
453.336	12366.06
453.443	12470.06
453.55	12512.06
453.657	12283.06
453.765	12689.06
453.872	12527.06
453.979	12781.06
454.086	12747.06
454.193	12839.06
454.3	12549.06
454.407	12799.06
454.514	12924.06
454.621	12768.06
454.729	12867.06
454.836	12952.06
454.943	13141.06
455.05	13027.06
455.157	13097.06
455.264	13019.06
455.371	13185.06
455.478	13151.06
455.585	14542.06
455.692	13582.06
455.799	13722.06
455.906	13493.06
456.013	13469.06
456.12	13577.06
456.227	13789.06
456.334	13810.06
456.44	13885.06
456.547	14035.06
456.654	13823.06
456.761	13988.06
456.868	13978.06
456.975	14002.06
457.082	14075.06
457.189	14021.06
457.296	14149.06
457.402	14334.06
457.509	14182.06
457.616	14432.06
457.723	14542.06
457.83	14542.06
457.936	14542.06
458.043	14542.06
458.15	14542.06
458.257	14542.06
458.363	14542.06
458.47	14542.06
458.577	14542.06
458.684	14542.06
458.79	14542.06
458.897	14542.06
459.004	14542.06
459.11	14542.06
459.217	14542.06
459.324	14542.06
459.43	14542.06
459.537	14542.06
459.644	14542.06
459.75	14542.06
459.857	14542.06
459.964	14542.06
460.07	14542.06
460.177	14542.06
460.283	14542.06
460.39	14542.06
460.496	14542.06
460.603	14542.06
460.71	14542.06
460.816	14542.06
460.923	14542.06
461.029	14542.06
461.136	14542.06
461.242	14542.06
461.349	14542.06
461.455	14542.06
461.562	14542.06
461.668	14542.06
461.774	14542.06
461.881	14542.06
461.987	14542.06
462.094	14542.06
462.2	14542.06
462.307	14542.06
462.413	14542.06
462.519	14542.06
462.626	14542.06
462.732	14542.06
462.838	14542.06
462.945	14542.06
463.051	14542.06
463.157	14542.06
463.264	14542.06
463.37	14542.06
463.476	14542.06
463.583	14542.06
463.689	14542.06
463.795	14542.06
463.901	14542.06
464.008	14542.06
464.114	14542.06
464.22	14542.06
464.326	14542.06
464.433	14542.06
464.539	14542.06
464.645	14542.06
464.751	14542.06
464.857	14542.06
464.963	14542.06
465.07	14542.06
465.176	14542.06
465.282	14542.06
465.388	14542.06
465.494	14542.06
465.6	14542.06
465.706	14542.06
465.812	14542.06
465.918	14542.06
466.024	14542.06
466.131	14524.06
466.237	14374.06
466.343	14245.06
466.449	13987.06
466.555	13884.06
466.661	13692.06
466.767	13699.06
466.873	13344.06
466.979	13693.06
467.085	13431.06
467.191	13423.06
467.296	13325.06
467.402	13238.06
467.508	13143.06
467.614	13189.06
467.72	12815.06
467.826	12731.06
467.932	12748.06
468.038	12511.06
468.144	12459.06
468.25	12114.06
468.355	12437.06
468.461	12334.06
468.567	12211.06
468.673	12267.06
468.779	12241.06
468.885	12043.06
468.99	11992.06
469.096	12099.06
469.202	12137.06
469.308	12119.06
469.413	12291.06
469.519	12210.06
469.625	12230.06
469.731	12234.06
469.836	12403.06
469.942	12399.06
470.048	12318.06
470.153	12490.06
470.259	12222.06
470.365	12385.06
470.47	12410.06
470.576	12235.06
470.682	12126.06
470.787	12185.06
470.893	11795.06
470.999	11915.06
471.104	11779.06
471.21	11674.06
471.315	11366.06
471.421	11256.06
471.527	11528.06
471.632	11217.06
471.738	11151.06
471.843	10993.06
471.949	10951.06
472.054	10953.06
472.16	10810.06
472.265	10774.06
472.371	10676.06
472.476	10619.06
472.582	10828.06
472.687	10504.06
472.793	10401.06
472.898	10417.06
473.003	10347.06
473.109	10386.06
473.214	10239.06
473.32	10284.06
473.425	10245.06
473.53	10285.06
473.636	10270.06
473.741	10282.06
473.847	10002.06
473.952	10210.06
474.057	10140.06
474.163	10193.06
474.268	10196.06
474.373	10229.06
474.478	10149.06
474.584	10157.06
474.689	10084.06
474.794	10068.06
474.9	10369.06
475.005	10010.06
475.11	10407.06
475.215	10230.06
475.321	10222.06
475.426	10468.06
475.531	10227.06
475.636	10226.06
475.741	10225.06
475.846	10356.06
475.952	10627.06
476.057	10466.06
476.162	10429.06
476.267	10764.06
476.372	10733.06
476.477	10454.06
476.582	10675.06
476.687	10623.06
476.793	10588.06
476.898	10642.06
477.003	10700.06
477.108	10741.06
477.213	10776.06
477.318	10967.06
477.423	10945.06
477.528	11136.06
477.633	11298.06
477.738	11402.06
477.843	11289.06
477.948	11360.06
478.053	11485.06
478.158	11539.06
478.263	11643.06
478.368	11705.06
478.473	11958.06
478.578	11931.06
478.682	12016.06
478.787	12006.06
478.892	12031.06
478.997	12311.06
479.102	12090.06
479.207	11969.06
479.312	12216.06
479.417	12278.06
479.521	12242.06
479.626	12516.06
479.731	12510.06
479.836	12537.06
479.941	12820.06
480.045	12847.06
480.15	13004.06
480.255	13057.06
480.36	13015.06
480.465	12912.06
480.569	13209.06
480.674	12932.06
480.779	12689.06
480.883	12809.06
480.988	12893.06
481.093	12855.06
481.197	12527.06
481.302	12514.06
481.407	12855.06
481.511	13959.06
481.616	12695.06
481.721	12633.06
481.825	12906.06
481.93	12586.06
482.035	12618.06
482.139	12706.06
482.244	12682.06
482.348	12834.06
482.453	12975.06
482.557	13017.06
482.662	13052.06
482.767	13068.06
482.871	13080.06
482.976	13102.06
483.08	13278.06
483.185	13379.06
483.289	13315.06
483.394	13448.06
483.498	13558.06
483.603	13637.06
483.707	13675.06
483.811	13829.06
483.916	13858.06
484.02	13837.06
484.125	14069.06
484.229	13933.06
484.333	14318.06
484.438	14343.06
484.542	14354.06
484.647	14486.06
484.751	14542.06
484.855	14542.06
484.96	14542.06
485.064	14542.06
485.168	14542.06
485.273	14542.06
485.377	14542.06
485.481	14542.06
485.585	14542.06
485.69	14542.06
485.794	14542.06
485.898	14542.06
486.002	14542.06
486.107	14542.06
486.211	14542.06
486.315	14542.06
486.419	14542.06
486.524	14542.06
486.628	14542.06
486.732	14542.06
486.836	14542.06
486.94	14542.06
487.044	14542.06
487.148	14542.06
487.253	14542.06
487.357	14542.06
487.461	14542.06
487.565	14542.06
487.669	14542.06
487.773	14542.06
487.877	14542.06
487.981	14542.06
488.085	14542.06
488.189	14542.06
488.293	14542.06
488.397	14542.06
488.501	14542.06
488.605	14542.06
488.709	14542.06
488.813	14542.06
488.917	14542.06
489.021	14542.06
489.125	14542.06
489.229	14542.06
489.333	14542.06
489.437	14542.06
489.541	14542.06
489.645	14542.06
489.749	14542.06
489.853	14542.06
489.956	14542.06
490.06	14542.06
490.164	14542.06
490.268	14542.06
490.372	14542.06
490.476	14542.06
490.579	14542.06
490.683	14542.06
490.787	14542.06
490.891	14542.06
490.995	14542.06
491.098	14542.06
491.202	14542.06
491.306	14542.06
491.41	14542.06
491.513	14542.06
491.617	14542.06
491.721	14542.06
491.824	14542.06
491.928	14542.06
492.032	14542.06
492.136	14542.06
492.239	14542.06
492.343	14542.06
492.446	14542.06
492.55	14542.06
492.654	14542.06
492.757	14542.06
492.861	14542.06
492.965	14542.06
493.068	14542.06
493.172	14542.06
493.275	14542.06
493.379	14542.06
493.482	14542.06
493.586	14542.06
493.689	14542.06
493.793	14542.06
493.896	14542.06
494	14542.06
494.103	14542.06
494.207	14542.06
494.31	14542.06
494.414	14542.06
494.517	14542.06
494.621	14542.06
494.724	14542.06
494.828	14542.06
494.931	14542.06
495.034	14542.06
495.138	14542.06
495.241	14542.06
495.345	14542.06
495.448	14542.06
495.551	14542.06
495.655	14542.06
495.758	14542.06
495.861	14542.06
495.965	14542.06
496.068	14542.06
496.171	14542.06
496.274	14542.06
496.378	14542.06
496.481	14542.06
496.584	14542.06
496.687	14542.06
496.791	14542.06
496.894	14542.06
496.997	14542.06
497.1	14542.06
497.204	14542.06
497.307	14542.06
497.41	14542.06
497.513	14542.06
497.616	14542.06
497.719	14542.06
497.823	14542.06
497.926	14542.06
498.029	14542.06
498.132	14542.06
498.235	14542.06
498.338	14542.06
498.441	14542.06
498.544	14542.06
498.647	14542.06
498.75	14542.06
498.853	14542.06
498.956	14542.06
499.059	14542.06
499.163	14542.06
499.266	14542.06
499.369	14542.06
499.471	14542.06
499.574	14542.06
499.677	14542.06
499.78	14542.06
499.883	14542.06
499.986	14542.06
500.089	14542.06
500.192	14542.06
500.295	14542.06
500.398	14542.06
500.501	14542.06
500.604	14542.06
500.707	14542.06
500.809	14542.06
500.912	14542.06
501.015	14542.06
501.118	14542.06
501.221	14542.06
501.324	14542.06
501.426	14542.06
501.529	14542.06
501.632	14542.06
501.735	14542.06
501.837	14542.06
501.94	14542.06
502.043	14542.06
502.146	14542.06
502.248	14542.06
502.351	14542.06
502.454	14542.06
502.557	14542.06
502.659	14542.06
502.762	14542.06
502.865	14542.06
502.967	14542.06
503.07	14542.06
503.173	14542.06
503.275	14542.06
503.378	14542.06
503.48	14542.06
503.583	14542.06
503.686	14350.06
503.788	14542.06
503.891	14258.06
503.993	14497.06
504.096	14114.06
504.198	14381.06
504.301	14349.06
504.403	14236.06
504.506	13963.06
504.608	13972.06
504.711	13763.06
504.813	13586.06
504.916	13347.06
505.018	12857.06
505.121	12692.06
505.223	12671.06
505.326	12475.06
505.428	12357.06
505.531	12170.06
505.633	12056.06
505.735	11849.06
505.838	11831.06
505.94	11901.06
506.042	11670.06
506.145	11480.06
506.247	11661.06
506.35	11420.06
506.452	11412.06
506.554	11456.06
506.656	11204.06
506.759	11233.06
506.861	11325.06
506.963	11124.06
507.066	11192.06
507.168	11249.06
507.27	11056.06
507.372	10903.06
507.475	10997.06
507.577	10983.06
507.679	10745.06
507.781	10654.06
507.883	10679.06
507.986	10712.06
508.088	10543.06
508.19	10636.06
508.292	10626.06
508.394	10424.06
508.496	10451.06
508.598	10459.06
508.701	10425.06
508.803	10461.06
508.905	10490.06
509.007	10420.06
509.109	10439.06
509.211	10400.06
509.313	10391.06
509.415	10200.06
509.517	10262.06
509.619	10148.06
509.721	10204.06
509.823	10136.06
509.925	10388.06
510.027	9986.06
510.129	10078.06
510.231	10172.06
510.333	10125.06
510.435	10136.06
510.537	10149.06
510.639	10227.06
510.741	10055.06
510.843	10083.06
510.945	10080.06
511.047	10170.06
511.148	10206.06
511.25	10175.06
511.352	10190.06
511.454	10070.06
511.556	10341.06
511.658	10051.06
511.76	10139.06
511.861	10476.06
511.963	10041.06
512.065	10098.06
512.167	10055.06
512.268	10544.06
512.37	10296.06
512.472	10201.06
512.574	10304.06
512.676	10248.06
512.777	10284.06
512.879	10358.06
512.981	10180.06
513.082	10243.06
513.184	10427.06
513.286	10763.06
513.387	10380.06
513.489	10582.06
513.591	10268.06
513.692	10527.06
513.794	10528.06
513.896	10368.06
513.997	10497.06
514.099	10485.06
514.2	10667.06
514.302	10670.06
514.404	10611.06
514.505	10751.06
514.607	10796.06
514.708	10703.06
514.81	10872.06
514.911	10936.06
515.013	10996.06
515.114	10929.06
515.216	11105.06
515.317	11183.06
515.419	11189.06
515.52	11334.06
515.622	11304.06
515.723	11297.06
515.825	11836.06
515.926	11613.06
516.027	11667.06
516.129	11931.06
516.23	12198.06
516.332	12251.06
516.433	12319.06
516.534	12355.06
516.636	12589.06
516.737	12694.06
516.838	13963.06
516.94	13257.06
517.041	13429.06
517.142	13771.06
517.244	13723.06
517.345	13876.06
517.446	14025.06
517.547	14150.06
517.649	14101.06
517.75	14212.06
517.851	13989.06
517.952	14287.06
518.054	14122.06
518.155	14015.06
518.256	13613.06
518.357	13736.06
518.458	13153.06
518.56	13268.06
518.661	13067.06
518.762	13010.06
518.863	12883.06
518.964	12765.06
519.065	12552.06
519.166	12525.06
519.268	12426.06
519.369	12516.06
519.47	12277.06
519.571	12269.06
519.672	12212.06
519.773	12306.06
519.874	12076.06
519.975	11978.06
520.076	12023.06
520.177	12029.06
520.278	11943.06
520.379	12116.06
520.48	11827.06
520.581	11642.06
520.682	11822.06
520.783	11903.06
520.884	11953.06
520.985	11881.06
521.086	11820.06
521.187	11868.06
521.288	11631.06
521.389	11816.06
521.489	11643.06
521.59	11691.06
521.691	11584.06
521.792	11547.06
521.893	11725.06
521.994	11613.06
522.095	11683.06
522.195	11618.06
522.296	11804.06
522.397	11738.06
522.498	11613.06
522.599	11658.06
522.699	11753.06
522.8	11507.06
522.901	11716.06
523.002	11588.06
523.102	11812.06
523.203	11610.06
523.304	11811.06
523.405	11607.06
523.505	11593.06
523.606	11649.06
523.707	11731.06
523.807	11620.06
523.908	11619.06
524.009	11932.06
524.109	11749.06
524.21	11580.06
524.31	11692.06
524.411	11806.06
524.512	11714.06
524.612	11650.06
524.713	11819.06
524.813	11661.06
524.914	11820.06
525.014	14542.06
525.115	11884.06
525.216	11678.06
525.316	11737.06
525.417	11612.06
525.517	11593.06
525.618	11842.06
525.718	11545.06
525.819	11559.06
525.919	11703.06
526.019	11733.06
526.12	11478.06
526.22	11689.06
526.321	11677.06
526.421	11772.06
526.522	11726.06
526.622	11686.06
526.722	11697.06
526.823	11721.06
526.923	11732.06
527.023	11720.06
527.124	11736.06
527.224	11789.06
527.324	11645.06
527.425	11660.06
527.525	11569.06
527.625	11639.06
527.726	11726.06
527.826	11762.06
527.926	11800.06
528.026	11647.06
528.127	11489.06
528.227	11555.06
528.327	11741.06
528.427	11493.06
528.528	11622.06
528.628	11711.06
528.728	11536.06
528.828	11563.06
528.928	11704.06
529.029	11469.06
529.129	11519.06
529.229	11587.06
529.329	11404.06
529.429	11587.06
529.529	11626.06
529.629	11530.06
529.729	11325.06
529.829	11474.06
529.93	11327.06
530.03	11517.06
530.13	11209.06
530.23	11306.06
530.33	11400.06
530.43	11306.06
530.53	11399.06
530.63	11268.06
530.73	11372.06
530.83	11127.06
530.93	11081.06
531.03	11196.06
531.13	11317.06
531.23	11076.06
531.33	11183.06
531.429	11187.06
531.529	11254.06
531.629	11144.06
531.729	11050.06
531.829	11104.06
531.929	11198.06
532.029	11073.06
532.129	11044.06
532.229	11001.06
532.328	10961.06
532.428	10975.06
532.528	10801.06
532.628	10727.06
532.728	10886.06
532.827	10793.06
532.927	10862.06
533.027	10711.06
533.127	11032.06
533.227	10637.06
533.326	10662.06
533.426	10598.06
533.526	10651.06
533.625	10768.06
533.725	10884.06
533.825	10674.06
533.924	10485.06
534.024	10408.06
534.124	10355.06
534.223	10345.06
534.323	10710.06
534.423	10373.06
534.522	10196.06
534.622	10242.06
534.722	10358.06
534.821	10115.06
534.921	9973.06
535.02	10046.06
535.12	10133.06
535.219	10035.06
535.319	10072.06
535.419	10098.06
535.518	9828.06
535.618	9971.06
535.717	9993.06
535.817	9796.06
535.916	9636.06
536.016	9738.06
536.115	9579.06
536.215	9645.06
536.314	9353.06
536.413	9390.06
536.513	9458.06
536.612	9441.06
536.712	9168.06
536.811	9216.06
536.91	9212.06
537.01	9185.06
537.109	9371.06
537.209	9179.06
537.308	9237.06
537.407	9210.06
537.507	9140.06
537.606	9174.06
537.705	9085.06
537.805	9105.06
537.904	9115.06
538.003	9071.06
538.102	9135.06
538.202	8929.06
538.301	9096.06
538.4	9121.06
538.499	8899.06
538.599	8900.06
538.698	9010.06
538.797	8703.06
538.896	8824.06
538.995	8906.06
539.095	8660.06
539.194	8962.06
539.293	8700.06
539.392	8620.06
539.491	8617.06
539.59	8710.06
539.689	8629.06
539.789	8697.06
539.888	8448.06
539.987	8448.06
540.086	8500.06
540.185	8483.06
540.284	8489.06
540.383	8425.06
540.482	8332.06
540.581	8344.06
540.68	8341.06
540.779	8438.06
540.878	8364.06
540.977	8303.06
541.076	8257.06
541.175	8340.06
541.274	8400.06
541.373	8252.06
541.472	8346.06
541.571	8116.06
541.67	9395.06
541.769	8357.06
541.868	8119.06
541.966	8100.06
542.065	8166.06
542.164	8177.06
542.263	8052.06
542.362	7999.06
542.461	8265.06
542.56	8038.06
542.658	8059.06
542.757	8074.06
542.856	7906.06
542.955	7955.06
543.054	7888.06
543.152	8049.06
543.251	7877.06
543.35	8007.06
543.449	7980.06
543.547	7924.06
543.646	7966.06
543.745	8036.06
543.843	7917.06
543.942	7832.06
544.041	8003.06
544.14	7929.06
544.238	7936.06
544.337	8054.06
544.436	7953.06
544.534	8120.06
544.633	7933.06
544.731	7888.06
544.83	7978.06
544.929	7889.06
545.027	7908.06
545.126	7869.06
545.224	7948.06
545.323	8021.06
545.421	7936.06
545.52	7933.06
545.619	8069.06
545.717	7820.06
545.816	8053.06
545.914	7869.06
546.013	8147.06
546.111	8102.06
546.209	7829.06
546.308	7866.06
546.406	7702.06
546.505	7907.06
546.603	7976.06
546.702	7666.06
546.8	7791.06
546.899	7773.06
546.997	7888.06
547.095	7889.06
547.194	7929.06
547.292	7872.06
547.39	7956.06
547.489	7843.06
547.587	8184.06
547.685	7817.06
547.784	8146.06
547.882	7967.06
547.98	7762.06
548.079	7928.06
548.177	7881.06
548.275	7928.06
548.373	7906.06
548.472	7894.06
548.57	7881.06
548.668	7925.06
548.766	7744.06
548.864	8026.06
548.963	7861.06
549.061	8048.06
549.159	7941.06
549.257	8018.06
549.355	7964.06
549.454	8028.06
549.552	8041.06
549.65	7909.06
549.748	7977.06
549.846	7925.06
549.944	7845.06
550.042	7860.06
550.14	7861.06
550.238	7803.06
550.336	7776.06
550.434	7728.06
550.532	7766.06
550.631	7769.06
550.729	7886.06
550.827	7679.06
550.925	7782.06
551.023	7666.06
551.121	7696.06
551.218	7816.06
551.316	7621.06
551.414	7674.06
551.512	7673.06
551.61	7823.06
551.708	8021.06
551.806	7965.06
551.904	7881.06
552.002	7956.06
552.1	7925.06
552.198	7968.06
552.296	8254.06
552.393	8201.06
552.491	8503.06
552.589	8346.06
552.687	8398.06
552.785	8409.06
552.882	8557.06
552.98	8710.06
553.078	8566.06
553.176	8617.06
553.274	8466.06
553.371	8473.06
553.469	8424.06
553.567	8350.06
553.665	8323.06
553.762	8740.06
553.86	8229.06
553.958	8182.06
554.055	8118.06
554.153	8231.06
554.251	8036.06
554.348	7987.06
554.446	7860.06
554.544	8020.06
554.641	8149.06
554.739	7823.06
554.837	7891.06
554.934	7764.06
555.032	7785.06
555.129	7670.06
555.227	7968.06
555.324	11323.06
555.422	7897.06
555.519	7528.06
555.617	7358.06
555.715	7326.06
555.812	9200.06
555.91	7455.06
556.007	7447.06
556.105	7383.06
556.202	7381.06
556.299	7296.06
556.397	7374.06
556.494	7219.06
556.592	7266.06
556.689	7286.06
556.787	7398.06
556.884	7185.06
556.981	7266.06
557.079	7240.06
557.176	7250.06
557.273	7189.06
557.371	7372.06
557.468	7228.06
557.566	7187.06
557.663	7223.06
557.76	7168.06
557.857	7153.06
557.955	7194.06
558.052	7266.06
558.149	7349.06
558.247	7354.06
558.344	7209.06
558.441	7163.06
558.538	7220.06
558.636	7218.06
558.733	7152.06
558.83	7347.06
558.927	7377.06
559.024	7272.06
559.122	7133.06
559.219	7195.06
559.316	7309.06
559.413	7437.06
559.51	7133.06
559.607	7366.06
559.704	7303.06
559.801	7297.06
559.899	7346.06
559.996	7501.06
560.093	7430.06
560.19	7271.06
560.287	7315.06
560.384	7290.06
560.481	7373.06
560.578	7259.06
560.675	7207.06
560.772	7287.06
560.869	7366.06
560.966	7488.06
561.063	7387.06
561.16	7490.06
561.257	7301.06
561.354	7356.06
561.451	7492.06
561.548	7514.06
561.645	7686.06
561.742	7409.06
561.838	7516.06
561.935	7402.06
562.032	7505.06
562.129	7437.06
562.226	7553.06
562.323	7491.06
562.42	7694.06
562.516	7459.06
562.613	7557.06
562.71	7592.06
562.807	8292.06
562.904	7550.06
563	7658.06
563.097	7760.06
563.194	7712.06
563.291	7784.06
563.387	7739.06
563.484	7697.06
563.581	7719.06
563.678	7869.06
563.774	8165.06
563.871	8019.06
563.968	8059.06
564.064	8074.06
564.161	8018.06
564.258	8058.06
564.354	8356.06
564.451	8243.06
564.548	8345.06
564.644	8292.06
564.741	8341.06
564.837	8328.06
564.934	8581.06
565.031	8689.06
565.127	8784.06
565.224	8943.06
565.32	9099.06
565.417	9106.06
565.513	9271.06
565.61	9515.06
565.706	9584.06
565.803	9504.06
565.899	10025.06
565.996	10032.06
566.092	10281.06
566.189	10552.06
566.285	10756.06
566.382	11088.06
566.478	11413.06
566.574	11641.06
566.671	11666.06
566.767	11712.06
566.864	11553.06
566.96	11844.06
567.056	11821.06
567.153	12219.06
567.249	12249.06
567.345	12530.06
567.442	12864.06
567.538	13024.06
567.634	13055.06
567.731	13229.06
567.827	13083.06
567.923	12980.06
568.019	12475.06
568.116	12249.06
568.212	11735.06
568.308	11568.06
568.404	11187.06
568.501	10888.06
568.597	10609.06
568.693	10269.06
568.789	10751.06
568.885	9680.06
568.982	9654.06
569.078	9395.06
569.174	9284.06
569.27	9012.06
569.366	8993.06
569.462	8691.06
569.558	8619.06
569.655	8623.06
569.751	8475.06
569.847	8276.06
569.943	8295.06
570.039	8171.06
570.135	8628.06
570.231	8139.06
570.327	8323.06
570.423	8182.06
570.519	8186.06
570.615	7963.06
570.711	8129.06
570.807	8149.06
570.903	7916.06
570.999	8018.06
571.095	7843.06
571.191	7815.06
571.287	7752.06
571.383	7692.06
571.479	7651.06
571.574	7568.06
571.67	7326.06
571.766	7574.06
571.862	7280.06
571.958	7149.06
572.054	7155.06
572.15	7059.06
572.246	6996.06
572.341	7061.06
572.437	6978.06
572.533	6901.06
572.629	6891.06
572.725	6940.06
572.82	6791.06
572.916	6809.06
573.012	6678.06
573.108	6833.06
573.203	6574.06
573.299	6631.06
573.395	6603.06
573.49	6416.06
573.586	6436.06
573.682	6612.06
573.778	6608.06
573.873	6506.06
573.969	6525.06
574.065	6309.06
574.16	6340.06
574.256	6470.06
574.351	6509.06
574.447	6347.06
574.543	6390.06
574.638	6410.06
574.734	6356.06
574.829	6439.06
574.925	6371.06
575.02	6145.06
575.116	6209.06
575.212	6151.06
575.307	6169.06
575.403	5927.06
575.498	6003.06
575.594	6026.06
575.689	6023.06
575.784	6048.06
575.88	5880.06
575.975	5971.06
576.071	5849.06
576.166	5851.06
576.262	5879.06
576.357	5785.06
576.452	5930.06
576.548	5718.06
576.643	5739.06
576.739	5832.06
576.834	5759.06
576.929	5631.06
577.025	6290.06
577.12	5629.06
577.215	5480.06
577.311	5500.06
577.406	5558.06
577.501	5751.06
577.597	5442.06
577.692	5669.06
577.787	5528.06
577.882	5436.06
577.978	5490.06
578.073	5369.06
578.168	5260.06
578.263	5293.06
578.358	5250.06
578.454	5131.06
578.549	5248.06
578.644	5224.06
578.739	5257.06
578.834	5156.06
578.929	5154.06
579.025	5164.06
579.12	5143.06
579.215	5361.06
579.31	5291.06
579.405	4977.06
579.5	5111.06
579.595	5086.06
579.69	4899.06
579.785	4869.06
579.88	4989.06
579.975	4898.06
580.07	4785.06
580.165	4907.06
580.26	4945.06
580.355	4721.06
580.45	4859.06
580.545	4699.06
580.64	4747.06
580.735	4939.06
580.83	4710.06
580.925	4587.06
581.02	4682.06
581.115	4639.06
581.21	4510.06
581.305	4647.06
581.4	4641.06
581.495	4596.06
581.589	4537.06
581.684	4595.06
581.779	4610.06
581.874	4537.06
581.969	4503.06
582.064	4469.06
582.158	4457.06
582.253	4410.06
582.348	4444.06
582.443	4443.06
582.537	4419.06
582.632	4595.06
582.727	4358.06
582.822	4356.06
582.916	4399.06
583.011	4311.06
583.106	4264.06
583.201	4320.06
583.295	4252.06
583.39	4239.06
583.485	4229.06
583.579	6471.06
583.674	4308.06
583.769	4489.06
583.863	4311.06
583.958	4181.06
584.052	4136.06
584.147	4156.06
584.242	4063.06
584.336	4106.06
584.431	4354.06
584.525	4087.06
584.62	4285.06
584.714	4186.06
584.809	4136.06
584.903	4104.06
584.998	4196.06
585.092	4090.06
585.187	4060.06
585.281	3978.06
585.376	4066.06
585.47	4018.06
585.565	4009.06
585.659	3988.06
585.754	3990.06
585.848	4071.06
585.942	3975.06
586.037	3924.06
586.131	6195.06
586.226	4033.06
586.32	4035.06
586.414	3789.06
586.509	3944.06
586.603	4011.06
586.697	3806.06
586.792	3905.06
586.886	3839.06
586.98	3819.06
587.075	3814.06
587.169	3737.06
587.263	3903.06
587.357	3766.06
587.452	3777.06
587.546	3873.06
587.64	3679.06
587.734	3753.06
587.829	3782.06
587.923	3772.06
588.017	3732.06
588.111	3793.06
588.205	3807.06
588.3	3740.06
588.394	3670.06
588.488	3734.06
588.582	3861.06
588.676	4000.06
588.77	4539.06
588.864	6233.06
588.958	6312.06
589.052	5469.06
589.147	4585.06
589.241	4066.06
589.335	4075.06
589.429	4939.06
589.523	5396.06
589.617	5111.06
589.711	4425.06
589.805	4046.06
589.899	3943.06
589.993	3725.06
590.087	3693.06
590.181	3573.06
590.275	3725.06
590.369	3604.06
590.462	3577.06
590.556	3563.06
590.65	3547.06
590.744	3584.06
590.838	3613.06
590.932	3589.06
591.026	3683.06
591.12	3802.06
591.214	3674.06
591.307	3610.06
591.401	3653.06
591.495	3818.06
591.589	3687.06
591.683	3662.06
591.777	3880.06
591.87	4109.06
591.964	3749.06
592.058	3860.06
592.152	3800.06
592.245	3832.06
592.339	3976.06
592.433	4036.06
592.527	3972.06
592.62	3922.06
592.714	4003.06
592.808	4024.06
592.901	4038.06
592.995	4073.06
593.089	4351.06
593.182	4123.06
593.276	4164.06
593.37	4010.06
593.463	4086.06
593.557	4080.06
593.65	4025.06
593.744	4071.06
593.837	4146.06
593.931	4081.06
594.025	7696.06
594.118	4360.06
594.212	4016.06
594.305	3960.06
594.399	4006.06
594.492	4274.06
594.586	3831.06
594.679	3848.06
594.773	3820.06
594.866	3728.06
594.96	3685.06
595.053	3557.06
595.146	3665.06
595.24	3614.06
595.333	3384.06
595.427	3384.06
595.52	3425.06
595.614	3479.06
595.707	3397.06
595.8	3236.06
595.894	3208.06
595.987	3173.06
596.08	3148.06
596.174	3468.06
596.267	3221.06
596.36	3211.06
596.454	3245.06
596.547	3085.06
596.64	3099.06
596.733	3018.06
596.827	3044.06
596.92	3072.06
597.013	2888.06
597.106	2834.06
597.2	2918.06
597.293	2881.06
597.386	2980.06
597.479	2979.06
597.572	2834.06
597.666	2749.06
597.759	2812.06
597.852	2926.06
597.945	2844.06
598.038	2797.06
598.131	2740.06
598.224	2836.06
598.317	2917.06
598.411	2868.06
598.504	2777.06
598.597	2818.06
598.69	2720.06
598.783	2720.06
598.876	2730.06
598.969	2758.06
599.062	2755.06
599.155	2776.06
599.248	2698.06
599.341	2831.06
599.434	2813.06
599.527	2747.06
599.62	2704.06
599.713	2682.06
599.806	2742.06
599.899	2877.06
599.991	2755.06
600.084	2870.06
600.177	2678.06
600.27	2667.06
600.363	2851.06
600.456	2680.06
600.549	2781.06
600.642	2571.06
600.734	2640.06
600.827	2721.06
600.92	2758.06
601.013	2657.06
601.106	2711.06
601.199	2596.06
601.291	2535.06
601.384	2628.06
601.477	2749.06
601.57	2717.06
601.662	2621.06
601.755	2592.06
601.848	2610.06
601.94	2546.06
602.033	2733.06
602.126	2572.06
602.219	2522.06
602.311	2662.06
602.404	2558.06
602.497	2526.06
602.589	2520.06
602.682	2642.06
602.774	2469.06
602.867	2538.06
602.96	2591.06
603.052	2499.06
603.145	2469.06
603.237	2512.06
603.33	2544.06
603.422	2609.06
603.515	2437.06
603.608	2564.06
603.7	2559.06
603.793	2546.06
603.885	2550.06
603.978	2536.06
604.07	2493.06
604.163	2536.06
604.255	2526.06
604.347	2509.06
604.44	2406.06
604.532	2493.06
604.625	2541.06
604.717	2507.06
604.81	2539.06
604.902	2388.06
604.994	2435.06
605.087	2440.06
605.179	2409.06
605.271	2449.06
605.364	2497.06
605.456	2479.06
605.548	2405.06
605.641	2432.06
605.733	2434.06
605.825	2381.06
605.918	2347.06
606.01	2599.06
606.102	2726.06
606.194	2367.06
606.287	2576.06
606.379	2337.06
606.471	2477.06
606.563	2496.06
606.655	2467.06
606.748	2438.06
606.84	2382.06
606.932	2438.06
607.024	2377.06
607.116	2373.06
607.208	2379.06
607.301	2359.06
607.393	2375.06
607.485	2409.06
607.577	2435.06
607.669	2427.06
607.761	2437.06
607.853	2638.06
607.945	2307.06
608.037	2270.06
608.129	2295.06
608.221	2342.06
608.313	2309.06
608.405	2340.06
608.497	2304.06
608.589	2342.06
608.681	2367.06
608.773	2340.06
608.865	2389.06
608.957	2377.06
609.049	2323.06
609.141	2409.06
609.233	2368.06
609.325	2276.06
609.417	2305.06
609.509	2472.06
609.601	2452.06
609.693	2376.06
609.784	2332.06
609.876	2321.06
609.968	2296.06
610.06	4370.06
610.152	2504.06
610.244	2550.06
610.335	2269.06
610.427	2311.06
610.519	2275.06
610.611	2229.06
610.702	2277.06
610.794	2219.06
610.886	2298.06
610.978	2242.06
611.069	2577.06
611.161	2148.06
611.253	2219.06
611.344	2076.06
611.436	1956.06
611.528	2078.06
611.62	2004.06
611.711	1983.06
611.803	1930.06
611.894	1920.06
611.986	1813.06
612.078	1948.06
612.169	1898.06
612.261	1849.06
612.352	1744.06
612.444	1726.06
612.536	1824.06
612.627	1720.06
612.719	1672.06
612.81	1715.06
612.902	1605.06
612.993	1639.06
613.085	1622.06
613.176	1526.06
613.268	1575.06
613.359	1556.06
613.451	1524.06
613.542	1507.06
613.634	1474.06
613.725	1533.06
613.816	1529.06
613.908	1357.06
613.999	1403.06
614.091	1256.06
614.182	1215.06
614.273	1329.06
614.365	1204.06
614.456	1169.06
614.547	1223.06
614.639	1104.06
614.73	1160.06
614.821	1206.06
614.913	1061.06
615.004	968.06
615.095	995.06
615.187	962.06
