Data from sinsal_HRC06701__49__110.txt Node

Date: Thu Apr 18 01:41:52 CDT 2024
User: Estudiantes 2
Spectrometer: HR+C0670
Trigger mode: 4
Integration Time (sec): 1.000000E0
Scans to average: 1
Electric dark correction enabled: true
Nonlinearity correction enabled: false
Boxcar width: 0
XAxis mode: Wavelengths
Number of Pixels in Spectrum: 2048
>>>>>Begin Spectral Data<<<<<
407.81	-84.19
407.921	-84.19
408.032	-84.19
408.143	-121.19
408.254	-117.19
408.365	22.81
408.476	219.81
408.587	-23.19
408.699	-4.19
408.81	-1.19
408.921	-48.19
409.032	-43.19
409.143	80.81
409.254	-13.19
409.365	66.81
409.476	25.81
409.587	-0.19
409.698	39.81
409.809	102.81
409.92	-39.19
410.031	-67.19
410.142	29.81
410.253	49.81
410.364	-16.19
410.475	28.81
410.585	296.81
410.696	267.81
410.807	241.81
410.918	327.81
411.029	293.81
411.14	304.81
411.251	282.81
411.362	316.81
411.472	314.81
411.583	325.81
411.694	359.81
411.805	276.81
411.916	269.81
412.026	423.81
412.137	302.81
412.248	323.81
412.359	340.81
412.47	257.81
412.58	257.81
412.691	349.81
412.802	342.81
412.912	291.81
413.023	292.81
413.134	301.81
413.245	414.81
413.355	251.81
413.466	301.81
413.577	295.81
413.687	344.81
413.798	283.81
413.909	345.81
414.019	332.81
414.13	339.81
414.24	260.81
414.351	321.81
414.462	472.81
414.572	372.81
414.683	328.81
414.793	300.81
414.904	626.81
415.014	298.81
415.125	265.81
415.235	354.81
415.346	390.81
415.456	452.81
415.567	367.81
415.677	335.81
415.788	356.81
415.898	304.81
416.009	277.81
416.119	321.81
416.23	290.81
416.34	287.81
416.45	336.81
416.561	886.81
416.671	446.81
416.782	237.81
416.892	300.81
417.002	353.81
417.113	331.81
417.223	324.81
417.333	318.81
417.444	303.81
417.554	326.81
417.664	377.81
417.775	306.81
417.885	313.81
417.995	331.81
418.106	470.81
418.216	321.81
418.326	346.81
418.436	346.81
418.547	282.81
418.657	289.81
418.767	437.81
418.877	303.81
418.987	295.81
419.098	327.81
419.208	350.81
419.318	389.81
419.428	402.81
419.538	327.81
419.648	340.81
419.759	395.81
419.869	447.81
419.979	285.81
420.089	344.81
420.199	364.81
420.309	393.81
420.419	371.81
420.529	344.81
420.639	729.81
420.749	396.81
420.859	411.81
420.969	395.81
421.079	544.81
421.189	405.81
421.299	451.81
421.409	313.81
421.519	463.81
421.629	484.81
421.739	315.81
421.849	345.81
421.959	340.81
422.069	410.81
422.179	329.81
422.289	331.81
422.399	411.81
422.509	461.81
422.619	3131.81
422.729	704.81
422.838	339.81
422.948	407.81
423.058	403.81
423.168	367.81
423.278	367.81
423.388	460.81
423.498	464.81
423.607	378.81
423.717	644.81
423.827	705.81
423.937	416.81
424.046	486.81
424.156	534.81
424.266	399.81
424.376	583.81
424.485	576.81
424.595	395.81
424.705	419.81
424.815	457.81
424.924	797.81
425.034	468.81
425.144	408.81
425.253	525.81
425.363	493.81
425.473	482.81
425.582	462.81
425.692	444.81
425.801	397.81
425.911	646.81
426.021	486.81
426.13	530.81
426.24	668.81
426.349	560.81
426.459	461.81
426.568	479.81
426.678	588.81
426.787	476.81
426.897	443.81
427.006	504.81
427.116	546.81
427.225	491.81
427.335	610.81
427.444	447.81
427.554	515.81
427.663	559.81
427.773	489.81
427.882	580.81
427.992	492.81
428.101	506.81
428.21	486.81
428.32	518.81
428.429	475.81
428.539	711.81
428.648	528.81
428.757	644.81
428.867	561.81
428.976	609.81
429.085	611.81
429.195	529.81
429.304	548.81
429.413	594.81
429.523	620.81
429.632	594.81
429.741	596.81
429.85	564.81
429.96	566.81
430.069	543.81
430.178	564.81
430.287	775.81
430.397	575.81
430.506	617.81
430.615	547.81
430.724	632.81
430.833	609.81
430.943	596.81
431.052	528.81
431.161	560.81
431.27	634.81
431.379	526.81
431.488	668.81
431.597	681.81
431.706	628.81
431.816	590.81
431.925	664.81
432.034	545.81
432.143	639.81
432.252	623.81
432.361	642.81
432.47	605.81
432.579	640.81
432.688	674.81
432.797	633.81
432.906	570.81
433.015	694.81
433.124	954.81
433.233	671.81
433.342	707.81
433.451	610.81
433.56	589.81
433.669	668.81
433.778	630.81
433.886	627.81
433.995	606.81
434.104	692.81
434.213	664.81
434.322	623.81
434.431	768.81
434.54	666.81
434.649	775.81
434.757	713.81
434.866	597.81
434.975	677.81
435.084	773.81
435.193	703.81
435.301	873.81
435.41	994.81
435.519	1013.81
435.628	629.81
435.737	593.81
435.845	645.81
435.954	584.81
436.063	643.81
436.171	653.81
436.28	627.81
436.389	674.81
436.498	636.81
436.606	616.81
436.715	701.81
436.823	599.81
436.932	561.81
437.041	599.81
437.149	628.81
437.258	595.81
437.367	550.81
437.475	544.81
437.584	775.81
437.692	587.81
437.801	1799.81
437.91	763.81
438.018	509.81
438.127	526.81
438.235	663.81
438.344	636.81
438.452	579.81
438.561	551.81
438.669	581.81
438.778	509.81
438.886	533.81
438.995	573.81
439.103	499.81
439.212	502.81
439.32	555.81
439.428	533.81
439.537	541.81
439.645	621.81
439.754	600.81
439.862	569.81
439.97	569.81
440.079	503.81
440.187	517.81
440.295	643.81
440.404	558.81
440.512	550.81
440.62	580.81
440.729	633.81
440.837	604.81
440.945	1086.81
441.054	696.81
441.162	557.81
441.27	641.81
441.378	619.81
441.487	617.81
441.595	874.81
441.703	660.81
441.811	621.81
441.92	598.81
442.028	529.81
442.136	644.81
442.244	624.81
442.352	612.81
442.461	575.81
442.569	482.81
442.677	482.81
442.785	606.81
442.893	641.81
443.001	524.81
443.109	529.81
443.217	546.81
443.325	526.81
443.434	967.81
443.542	797.81
443.65	600.81
443.758	681.81
443.866	555.81
443.974	815.81
444.082	615.81
444.19	656.81
444.298	646.81
444.406	647.81
444.514	606.81
444.622	664.81
444.73	615.81
444.838	624.81
444.946	713.81
445.054	595.81
445.161	592.81
445.269	619.81
445.377	589.81
445.485	612.81
445.593	628.81
445.701	801.81
445.809	633.81
445.917	631.81
446.025	597.81
446.132	617.81
446.24	635.81
446.348	640.81
446.456	524.81
446.564	605.81
446.671	651.81
446.779	578.81
446.887	590.81
446.995	622.81
447.102	597.81
447.21	626.81
447.318	644.81
447.426	594.81
447.533	769.81
447.641	1531.81
447.749	760.81
447.856	599.81
447.964	609.81
448.072	734.81
448.179	591.81
448.287	627.81
448.395	672.81
448.502	594.81
448.61	598.81
448.718	635.81
448.825	669.81
448.933	636.81
449.04	616.81
449.148	682.81
449.256	634.81
449.363	657.81
449.471	663.81
449.578	686.81
449.686	563.81
449.793	737.81
449.901	641.81
450.008	603.81
450.116	704.81
450.223	631.81
450.331	686.81
450.438	700.81
450.546	760.81
450.653	697.81
450.76	675.81
450.868	782.81
450.975	778.81
451.083	655.81
451.19	802.81
451.297	743.81
451.405	723.81
451.512	712.81
451.619	800.81
451.727	793.81
451.834	724.81
451.941	739.81
452.049	682.81
452.156	723.81
452.263	809.81
452.371	715.81
452.478	796.81
452.585	863.81
452.692	723.81
452.8	767.81
452.907	920.81
453.014	774.81
453.121	705.81
453.229	804.81
453.336	861.81
453.443	842.81
453.55	744.81
453.657	791.81
453.765	856.81
453.872	784.81
453.979	856.81
454.086	815.81
454.193	776.81
454.3	820.81
454.407	915.81
454.514	922.81
454.621	805.81
454.729	858.81
454.836	796.81
454.943	842.81
455.05	917.81
455.157	948.81
455.264	834.81
455.371	850.81
455.478	849.81
455.585	1882.81
455.692	1029.81
455.799	1010.81
455.906	836.81
456.013	854.81
456.12	813.81
456.227	819.81
456.334	900.81
456.44	1028.81
456.547	904.81
456.654	840.81
456.761	922.81
456.868	872.81
456.975	921.81
457.082	923.81
457.189	828.81
457.296	844.81
457.402	898.81
457.509	879.81
457.616	874.81
457.723	1049.81
457.83	947.81
457.936	927.81
458.043	1134.81
458.15	939.81
458.257	1003.81
458.363	935.81
458.47	1003.81
458.577	991.81
458.684	945.81
458.79	1007.81
458.897	1015.81
459.004	1033.81
459.11	966.81
459.217	1068.81
459.324	1053.81
459.43	1155.81
459.537	1269.81
459.644	1031.81
459.75	1002.81
459.857	1345.81
459.964	1021.81
460.07	1094.81
460.177	1089.81
460.283	1098.81
460.39	1168.81
460.496	1068.81
460.603	1096.81
460.71	1064.81
460.816	992.81
460.923	1054.81
461.029	1090.81
461.136	1069.81
461.242	1059.81
461.349	1073.81
461.455	1009.81
461.562	1347.81
461.668	1149.81
461.774	1074.81
461.881	1157.81
461.987	1140.81
462.094	1025.81
462.2	1120.81
462.307	1179.81
462.413	1078.81
462.519	1061.81
462.626	1264.81
462.732	1116.81
462.838	1186.81
462.945	1259.81
463.051	1168.81
463.157	1136.81
463.264	1167.81
463.37	1236.81
463.476	1195.81
463.583	1216.81
463.689	1128.81
463.795	1102.81
463.901	1124.81
464.008	1287.81
464.114	1106.81
464.22	1078.81
464.326	1179.81
464.433	1041.81
464.539	1120.81
464.645	1138.81
464.751	1163.81
464.857	1083.81
464.963	993.81
465.07	1120.81
465.176	1029.81
465.282	995.81
465.388	1145.81
465.494	942.81
465.6	932.81
465.706	903.81
465.812	856.81
465.918	965.81
466.024	900.81
466.131	974.81
466.237	866.81
466.343	878.81
466.449	882.81
466.555	826.81
466.661	848.81
466.767	851.81
466.873	840.81
466.979	957.81
467.085	916.81
467.191	874.81
467.296	861.81
467.402	828.81
467.508	860.81
467.614	921.81
467.72	818.81
467.826	770.81
467.932	804.81
468.038	744.81
468.144	855.81
468.25	799.81
468.355	732.81
468.461	879.81
468.567	733.81
468.673	829.81
468.779	823.81
468.885	739.81
468.99	718.81
469.096	771.81
469.202	883.81
469.308	793.81
469.413	807.81
469.519	811.81
469.625	684.81
469.731	776.81
469.836	801.81
469.942	910.81
470.048	789.81
470.153	833.81
470.259	796.81
470.365	853.81
470.47	931.81
470.576	774.81
470.682	757.81
470.787	789.81
470.893	766.81
470.999	793.81
471.104	811.81
471.21	767.81
471.315	645.81
471.421	727.81
471.527	964.81
471.632	779.81
471.738	739.81
471.843	727.81
471.949	741.81
472.054	757.81
472.16	738.81
472.265	761.81
472.371	702.81
472.476	711.81
472.582	760.81
472.687	682.81
472.793	669.81
472.898	771.81
473.003	689.81
473.109	684.81
473.214	681.81
473.32	640.81
473.425	770.81
473.53	698.81
473.636	665.81
473.741	691.81
473.847	679.81
473.952	746.81
474.057	746.81
474.163	749.81
474.268	700.81
474.373	730.81
474.478	652.81
474.584	671.81
474.689	692.81
474.794	709.81
474.9	919.81
475.005	690.81
475.11	832.81
475.215	732.81
475.321	698.81
475.426	875.81
475.531	801.81
475.636	745.81
475.741	661.81
475.846	798.81
475.952	907.81
476.057	734.81
476.162	750.81
476.267	862.81
476.372	917.81
476.477	702.81
476.582	806.81
476.687	726.81
476.793	710.81
476.898	718.81
477.003	820.81
477.108	724.81
477.213	698.81
477.318	766.81
477.423	746.81
477.528	795.81
477.633	864.81
477.738	742.81
477.843	708.81
477.948	782.81
478.053	724.81
478.158	718.81
478.263	760.81
478.368	799.81
478.473	817.81
478.578	812.81
478.682	781.81
478.787	789.81
478.892	831.81
478.997	875.81
479.102	780.81
479.207	774.81
479.312	900.81
479.417	825.81
479.521	801.81
479.626	855.81
479.731	897.81
479.836	813.81
479.941	898.81
480.045	943.81
480.15	890.81
480.255	800.81
480.36	834.81
480.465	883.81
480.569	996.81
480.674	877.81
480.779	785.81
480.883	820.81
480.988	888.81
481.093	873.81
481.197	859.81
481.302	881.81
481.407	1001.81
481.511	2467.81
481.616	995.81
481.721	966.81
481.825	983.81
481.93	876.81
482.035	867.81
482.139	923.81
482.244	898.81
482.348	908.81
482.453	913.81
482.557	882.81
482.662	914.81
482.767	915.81
482.871	859.81
482.976	876.81
483.08	989.81
483.185	1021.81
483.289	894.81
483.394	943.81
483.498	922.81
483.603	893.81
483.707	947.81
483.811	1015.81
483.916	1018.81
484.02	917.81
484.125	1046.81
484.229	943.81
484.333	1057.81
484.438	1006.81
484.542	985.81
484.647	921.81
484.751	1018.81
484.855	977.81
484.96	921.81
485.064	968.81
485.168	1021.81
485.273	917.81
485.377	1007.81
485.481	1198.81
485.585	978.81
485.69	1010.81
485.794	1092.81
485.898	1024.81
486.002	1036.81
486.107	1104.81
486.211	1041.81
486.315	1064.81
486.419	1097.81
486.524	1089.81
486.628	974.81
486.732	1033.81
486.836	1096.81
486.94	1113.81
487.044	1040.81
487.148	1079.81
487.253	1018.81
487.357	1083.81
487.461	1253.81
487.565	1097.81
487.669	1060.81
487.773	1074.81
487.877	1166.81
487.981	1067.81
488.085	1154.81
488.189	1097.81
488.293	1133.81
488.397	1414.81
488.501	1216.81
488.605	1089.81
488.709	1064.81
488.813	1164.81
488.917	1067.81
489.021	1067.81
489.125	1329.81
489.229	1100.81
489.333	1233.81
489.437	1186.81
489.541	1188.81
489.645	1096.81
489.749	1095.81
489.853	1213.81
489.956	1074.81
490.06	1138.81
490.164	1170.81
490.268	1089.81
490.372	1147.81
490.476	1087.81
490.579	1100.81
490.683	1605.81
490.787	1280.81
490.891	1116.81
490.995	1158.81
491.098	1162.81
491.202	1183.81
491.306	1132.81
491.41	1188.81
491.513	1134.81
491.617	1122.81
491.721	1317.81
491.824	1363.81
491.928	1111.81
492.032	1347.81
492.136	1177.81
492.239	1182.81
492.343	1171.81
492.446	1454.81
492.55	1207.81
492.654	1091.81
492.757	1095.81
492.861	1191.81
492.965	1142.81
493.068	1147.81
493.172	1182.81
493.275	1086.81
493.379	1122.81
493.482	1251.81
493.586	1251.81
493.689	1294.81
493.793	1165.81
493.896	1295.81
494	1179.81
494.103	1165.81
494.207	1444.81
494.31	1400.81
494.414	1163.81
494.517	1220.81
494.621	1118.81
494.724	1141.81
494.828	1152.81
494.931	1112.81
495.034	1060.81
495.138	1273.81
495.241	1116.81
495.345	1704.81
495.448	1239.81
495.551	1131.81
495.655	1114.81
495.758	1109.81
495.861	1179.81
495.965	1075.81
496.068	1082.81
496.171	1200.81
496.274	1114.81
496.378	1137.81
496.481	1135.81
496.584	1135.81
496.687	1122.81
496.791	1180.81
496.894	1146.81
496.997	1117.81
497.1	1110.81
497.204	1160.81
497.307	1090.81
497.41	1231.81
497.513	1313.81
497.616	1090.81
497.719	1092.81
497.823	1168.81
497.926	1115.81
498.029	1098.81
498.132	1112.81
498.235	1156.81
498.338	1152.81
498.441	1218.81
498.544	1175.81
498.647	1242.81
498.75	1279.81
498.853	1396.81
498.956	1227.81
499.059	1424.81
499.163	1272.81
499.266	1291.81
499.369	1284.81
499.471	1329.81
499.574	1378.81
499.677	1419.81
499.78	1428.81
499.883	1480.81
499.986	1509.81
500.089	1532.81
500.192	1579.81
500.295	1525.81
500.398	1598.81
500.501	1572.81
500.604	1519.81
500.707	1455.81
500.809	1454.81
500.912	1536.81
501.015	1425.81
501.118	1366.81
501.221	1455.81
501.324	1308.81
501.426	1267.81
501.529	1250.81
501.632	1195.81
501.735	1112.81
501.837	1163.81
501.94	1154.81
502.043	1089.81
502.146	1143.81
502.248	1136.81
502.351	1047.81
502.454	1065.81
502.557	1058.81
502.659	1050.81
502.762	996.81
502.865	1006.81
502.967	928.81
503.07	955.81
503.173	1055.81
503.275	1005.81
503.378	942.81
503.48	955.81
503.583	1020.81
503.686	1011.81
503.788	1192.81
503.891	1031.81
503.993	1089.81
504.096	949.81
504.198	1003.81
504.301	902.81
504.403	943.81
504.506	962.81
504.608	939.81
504.711	900.81
504.813	1006.81
504.916	968.81
505.018	895.81
505.121	852.81
505.223	962.81
505.326	864.81
505.428	969.81
505.531	922.81
505.633	851.81
505.735	811.81
505.838	888.81
505.94	882.81
506.042	842.81
506.145	852.81
506.247	884.81
506.35	789.81
506.452	951.81
506.554	948.81
506.656	898.81
506.759	835.81
506.861	896.81
506.963	820.81
507.066	872.81
507.168	938.81
507.27	812.81
507.372	763.81
507.475	853.81
507.577	893.81
507.679	775.81
507.781	795.81
507.883	777.81
507.986	753.81
508.088	813.81
508.19	865.81
508.292	828.81
508.394	787.81
508.496	802.81
508.598	800.81
508.701	832.81
508.803	856.81
508.905	773.81
509.007	820.81
509.109	832.81
509.211	862.81
509.313	812.81
509.415	752.81
509.517	825.81
509.619	788.81
509.721	858.81
509.823	778.81
509.925	911.81
510.027	783.81
510.129	838.81
510.231	802.81
510.333	755.81
510.435	821.81
510.537	886.81
510.639	832.81
510.741	780.81
510.843	883.81
510.945	737.81
511.047	808.81
511.148	864.81
511.25	778.81
511.352	792.81
511.454	764.81
511.556	807.81
511.658	784.81
511.76	905.81
511.861	854.81
511.963	760.81
512.065	795.81
512.167	784.81
512.268	912.81
512.37	809.81
512.472	828.81
512.574	799.81
512.676	867.81
512.777	822.81
512.879	733.81
512.981	775.81
513.082	821.81
513.184	808.81
513.286	1172.81
513.387	892.81
513.489	902.81
513.591	854.81
513.692	900.81
513.794	887.81
513.896	743.81
513.997	765.81
514.099	795.81
514.2	800.81
514.302	820.81
514.404	817.81
514.505	752.81
514.607	853.81
514.708	833.81
514.81	864.81
514.911	836.81
515.013	875.81
515.114	916.81
515.216	788.81
515.317	813.81
515.419	853.81
515.52	854.81
515.622	806.81
515.723	854.81
515.825	912.81
515.926	900.81
516.027	855.81
516.129	828.81
516.23	824.81
516.332	894.81
516.433	862.81
516.534	930.81
516.636	855.81
516.737	900.81
516.838	1712.81
516.94	1034.81
517.041	945.81
517.142	1036.81
517.244	990.81
517.345	1013.81
517.446	984.81
517.547	979.81
517.649	932.81
517.75	980.81
517.851	922.81
517.952	1136.81
518.054	1000.81
518.155	1032.81
518.256	921.81
518.357	1108.81
518.458	863.81
518.56	886.81
518.661	972.81
518.762	936.81
518.863	1059.81
518.964	993.81
519.065	875.81
519.166	884.81
519.268	870.81
519.369	1144.81
519.47	900.81
519.571	945.81
519.672	942.81
519.773	885.81
519.874	966.81
519.975	1009.81
520.076	914.81
520.177	1001.81
520.278	937.81
520.379	995.81
520.48	856.81
520.581	939.81
520.682	925.81
520.783	847.81
520.884	948.81
520.985	977.81
521.086	903.81
521.187	946.81
521.288	945.81
521.389	970.81
521.489	882.81
521.59	903.81
521.691	961.81
521.792	848.81
521.893	1015.81
521.994	1071.81
522.095	932.81
522.195	996.81
522.296	1084.81
522.397	1007.81
522.498	975.81
522.599	928.81
522.699	932.81
522.8	942.81
522.901	1039.81
523.002	991.81
523.102	1091.81
523.203	992.81
523.304	1056.81
523.405	909.81
523.505	884.81
523.606	1029.81
523.707	1015.81
523.807	986.81
523.908	991.81
524.009	1045.81
524.109	984.81
524.21	980.81
524.31	1014.81
524.411	1085.81
524.512	1120.81
524.612	1067.81
524.713	1145.81
524.813	979.81
524.914	1175.81
525.014	5601.81
525.115	1391.81
525.216	984.81
525.316	964.81
525.417	967.81
525.517	1009.81
525.618	960.81
525.718	947.81
525.819	947.81
525.919	1030.81
526.019	976.81
526.12	984.81
526.22	939.81
526.321	919.81
526.421	875.81
526.522	978.81
526.622	954.81
526.722	926.81
526.823	1014.81
526.923	998.81
527.023	1056.81
527.124	930.81
527.224	1051.81
527.324	902.81
527.425	1009.81
527.525	938.81
527.625	932.81
527.726	909.81
527.826	1035.81
527.926	942.81
528.026	977.81
528.127	1002.81
528.227	927.81
528.327	1017.81
528.427	971.81
528.528	1006.81
528.628	1015.81
528.728	978.81
528.828	1022.81
528.928	1025.81
529.029	982.81
529.129	1065.81
529.229	976.81
529.329	980.81
529.429	1084.81
529.529	1046.81
529.629	997.81
529.729	996.81
529.829	1055.81
529.93	961.81
530.03	1015.81
530.13	1022.81
530.23	952.81
530.33	1025.81
530.43	982.81
530.53	985.81
530.63	944.81
530.73	923.81
530.83	851.81
530.93	910.81
531.03	895.81
531.13	996.81
531.23	860.81
531.33	946.81
531.429	969.81
531.529	934.81
531.629	935.81
531.729	896.81
531.829	848.81
531.929	838.81
532.029	973.81
532.129	919.81
532.229	955.81
532.328	956.81
532.428	875.81
532.528	865.81
532.628	853.81
532.728	916.81
532.827	817.81
532.927	935.81
533.027	915.81
533.127	981.81
533.227	926.81
533.326	1015.81
533.426	862.81
533.526	1004.81
533.625	1054.81
533.725	1087.81
533.825	993.81
533.924	875.81
534.024	807.81
534.124	852.81
534.223	920.81
534.323	1259.81
534.423	917.81
534.522	879.81
534.622	852.81
534.722	860.81
534.821	836.81
534.921	864.81
535.02	782.81
535.12	878.81
535.219	968.81
535.319	905.81
535.419	923.81
535.518	835.81
535.618	872.81
535.717	899.81
535.817	800.81
535.916	786.81
536.016	877.81
536.115	793.81
536.215	845.81
536.314	782.81
536.413	752.81
536.513	802.81
536.612	767.81
536.712	726.81
536.811	784.81
536.91	735.81
537.01	735.81
537.109	799.81
537.209	779.81
537.308	776.81
537.407	768.81
537.507	834.81
537.606	754.81
537.705	799.81
537.805	811.81
537.904	712.81
538.003	740.81
538.102	872.81
538.202	799.81
538.301	761.81
538.4	835.81
538.499	842.81
538.599	835.81
538.698	930.81
538.797	792.81
538.896	827.81
538.995	799.81
539.095	770.81
539.194	921.81
539.293	790.81
539.392	808.81
539.491	771.81
539.59	739.81
539.689	874.81
539.789	850.81
539.888	661.81
539.987	700.81
540.086	770.81
540.185	762.81
540.284	773.81
540.383	803.81
540.482	689.81
540.581	756.81
540.68	780.81
540.779	802.81
540.878	742.81
540.977	854.81
541.076	792.81
541.175	727.81
541.274	918.81
541.373	877.81
541.472	796.81
541.571	726.81
541.67	1886.81
541.769	928.81
541.868	789.81
541.966	838.81
542.065	754.81
542.164	781.81
542.263	739.81
542.362	753.81
542.461	775.81
542.56	786.81
542.658	856.81
542.757	731.81
542.856	682.81
542.955	706.81
543.054	680.81
543.152	819.81
543.251	794.81
543.35	882.81
543.449	797.81
543.547	781.81
543.646	693.81
543.745	737.81
543.843	791.81
543.942	843.81
544.041	723.81
544.14	767.81
544.238	815.81
544.337	844.81
544.436	764.81
544.534	906.81
544.633	782.81
544.731	755.81
544.83	819.81
544.929	751.81
545.027	715.81
545.126	713.81
545.224	808.81
545.323	713.81
545.421	728.81
545.52	802.81
545.619	684.81
545.717	704.81
545.816	855.81
545.914	729.81
546.013	914.81
546.111	867.81
546.209	713.81
546.308	679.81
546.406	716.81
546.505	862.81
546.603	734.81
546.702	728.81
546.8	733.81
546.899	711.81
546.997	793.81
547.095	860.81
547.194	771.81
547.292	706.81
547.39	843.81
547.489	700.81
547.587	940.81
547.685	744.81
547.784	955.81
547.882	761.81
547.98	674.81
548.079	786.81
548.177	715.81
548.275	706.81
548.373	880.81
548.472	691.81
548.57	698.81
548.668	847.81
548.766	671.81
548.864	772.81
548.963	710.81
549.061	823.81
549.159	681.81
549.257	764.81
549.355	771.81
549.454	653.81
549.552	782.81
549.65	758.81
549.748	674.81
549.846	706.81
549.944	700.81
550.042	643.81
550.14	686.81
550.238	738.81
550.336	701.81
550.434	634.81
550.532	723.81
550.631	805.81
550.729	678.81
550.827	691.81
550.925	724.81
551.023	659.81
551.121	656.81
551.218	700.81
551.316	609.81
551.414	626.81
551.512	610.81
551.61	669.81
551.708	736.81
551.806	756.81
551.904	667.81
552.002	631.81
552.1	646.81
552.198	713.81
552.296	765.81
552.393	814.81
552.491	860.81
552.589	753.81
552.687	775.81
552.785	796.81
552.882	851.81
552.98	884.81
553.078	843.81
553.176	783.81
553.274	632.81
553.371	692.81
553.469	743.81
553.567	696.81
553.665	728.81
553.762	1091.81
553.86	804.81
553.958	756.81
554.055	797.81
554.153	760.81
554.251	733.81
554.348	779.81
554.446	719.81
554.544	696.81
554.641	985.81
554.739	715.81
554.837	696.81
554.934	723.81
555.032	746.81
555.129	645.81
555.227	958.81
555.324	5038.81
555.422	1084.81
555.519	728.81
555.617	716.81
555.715	621.81
555.812	972.81
555.91	664.81
556.007	775.81
556.105	662.81
556.202	716.81
556.299	679.81
556.397	636.81
556.494	668.81
556.592	694.81
556.689	725.81
556.787	680.81
556.884	684.81
556.981	668.81
557.079	594.81
557.176	666.81
557.273	711.81
557.371	720.81
557.468	680.81
557.566	728.81
557.663	650.81
557.76	657.81
557.857	704.81
557.955	674.81
558.052	716.81
558.149	789.81
558.247	755.81
558.344	606.81
558.441	643.81
558.538	704.81
558.636	656.81
558.733	728.81
558.83	754.81
558.927	668.81
559.024	678.81
559.122	675.81
559.219	628.81
559.316	714.81
559.413	808.81
559.51	640.81
559.607	639.81
559.704	729.81
559.801	778.81
559.899	649.81
559.996	906.81
560.093	760.81
560.19	627.81
560.287	745.81
560.384	854.81
560.481	668.81
560.578	697.81
560.675	684.81
560.772	729.81
560.869	691.81
560.966	830.81
561.063	706.81
561.16	724.81
561.257	703.81
561.354	712.81
561.451	680.81
561.548	675.81
561.645	870.81
561.742	659.81
561.838	668.81
561.935	729.81
562.032	655.81
562.129	689.81
562.226	696.81
562.323	689.81
562.42	698.81
562.516	652.81
562.613	678.81
562.71	684.81
562.807	1242.81
562.904	726.81
563	673.81
563.097	621.81
563.194	727.81
563.291	608.81
563.387	676.81
563.484	760.81
563.581	664.81
563.678	633.81
563.774	979.81
563.871	742.81
563.968	681.81
564.064	744.81
564.161	699.81
564.258	643.81
564.354	765.81
564.451	796.81
564.548	692.81
564.644	682.81
564.741	730.81
564.837	644.81
564.934	646.81
565.031	703.81
565.127	695.81
565.224	707.81
565.32	805.81
565.417	721.81
565.513	700.81
565.61	765.81
565.706	802.81
565.803	753.81
565.899	732.81
565.996	760.81
566.092	716.81
566.189	703.81
566.285	724.81
566.382	773.81
566.478	803.81
566.574	800.81
566.671	796.81
566.767	738.81
566.864	748.81
566.96	861.81
567.056	738.81
567.153	1005.81
567.249	870.81
567.345	862.81
567.442	872.81
567.538	876.81
567.634	827.81
567.731	735.81
567.827	827.81
567.923	843.81
568.019	723.81
568.116	707.81
568.212	763.81
568.308	768.81
568.404	738.81
568.501	764.81
568.597	740.81
568.693	676.81
568.789	1210.81
568.885	663.81
568.982	673.81
569.078	663.81
569.174	752.81
569.27	614.81
569.366	711.81
569.462	719.81
569.558	622.81
569.655	614.81
569.751	648.81
569.847	612.81
569.943	641.81
570.039	616.81
570.135	982.81
570.231	640.81
570.327	716.81
570.423	728.81
570.519	666.81
570.615	608.81
570.711	677.81
570.807	686.81
570.903	598.81
570.999	708.81
571.095	653.81
571.191	658.81
571.287	666.81
571.383	674.81
571.479	659.81
571.574	749.81
571.67	661.81
571.766	759.81
571.862	621.81
571.958	602.81
572.054	689.81
572.15	561.81
572.246	600.81
572.341	647.81
572.437	600.81
572.533	669.81
572.629	608.81
572.725	552.81
572.82	538.81
572.916	696.81
573.012	569.81
573.108	658.81
573.203	592.81
573.299	543.81
573.395	533.81
573.49	543.81
573.586	478.81
573.682	505.81
573.778	709.81
573.873	536.81
573.969	546.81
574.065	589.81
574.16	555.81
574.256	551.81
574.351	600.81
574.447	554.81
574.543	552.81
574.638	624.81
574.734	617.81
574.829	675.81
574.925	573.81
575.02	597.81
575.116	545.81
575.212	571.81
575.307	680.81
575.403	545.81
575.498	559.81
575.594	562.81
575.689	587.81
575.784	583.81
575.88	588.81
575.975	641.81
576.071	496.81
576.166	506.81
576.262	588.81
576.357	514.81
576.452	659.81
576.548	602.81
576.643	492.81
576.739	564.81
576.834	530.81
576.929	554.81
577.025	1052.81
577.12	528.81
577.215	510.81
577.311	541.81
577.406	590.81
577.501	733.81
577.597	448.81
577.692	592.81
577.787	653.81
577.882	494.81
577.978	516.81
578.073	506.81
578.168	447.81
578.263	455.81
578.358	516.81
578.454	464.81
578.549	419.81
578.644	433.81
578.739	571.81
578.834	424.81
578.929	492.81
579.025	512.81
579.12	487.81
579.215	631.81
579.31	686.81
579.405	437.81
579.5	500.81
579.595	475.81
579.69	428.81
579.785	442.81
579.88	433.81
579.975	464.81
580.07	444.81
580.165	446.81
580.26	573.81
580.355	460.81
580.45	423.81
580.545	473.81
580.64	409.81
580.735	518.81
580.83	507.81
580.925	420.81
581.02	399.81
581.115	366.81
581.21	424.81
581.305	461.81
581.4	418.81
581.495	479.81
581.589	419.81
581.684	421.81
581.779	503.81
581.874	431.81
581.969	500.81
582.064	454.81
582.158	426.81
582.253	391.81
582.348	388.81
582.443	443.81
582.537	403.81
582.632	591.81
582.727	485.81
582.822	393.81
582.916	362.81
583.011	458.81
583.106	432.81
583.201	391.81
583.295	478.81
583.39	373.81
583.485	378.81
583.579	1889.81
583.674	602.81
583.769	573.81
583.863	396.81
583.958	458.81
584.052	324.81
584.147	356.81
584.242	383.81
584.336	356.81
584.431	490.81
584.525	405.81
584.62	518.81
584.714	435.81
584.809	435.81
584.903	433.81
584.998	431.81
585.092	317.81
585.187	450.81
585.281	346.81
585.376	383.81
585.47	442.81
585.565	371.81
585.659	309.81
585.754	417.81
585.848	400.81
585.942	347.81
586.037	362.81
586.131	2285.81
586.226	497.81
586.32	378.81
586.414	362.81
586.509	414.81
586.603	400.81
586.697	382.81
586.792	305.81
586.886	312.81
586.98	458.81
587.075	316.81
587.169	306.81
587.263	514.81
587.357	387.81
587.452	319.81
587.546	442.81
587.64	336.81
587.734	305.81
587.829	349.81
587.923	354.81
588.017	347.81
588.111	318.81
588.205	422.81
588.3	279.81
588.394	283.81
588.488	319.81
588.582	355.81
588.676	338.81
588.77	323.81
588.864	415.81
588.958	290.81
589.052	292.81
589.147	429.81
589.241	366.81
589.335	306.81
589.429	403.81
589.523	349.81
589.617	327.81
589.711	382.81
589.805	384.81
589.899	400.81
589.993	308.81
590.087	284.81
590.181	256.81
590.275	363.81
590.369	356.81
590.462	244.81
590.556	276.81
590.65	295.81
590.744	267.81
590.838	243.81
590.932	316.81
591.026	323.81
591.12	428.81
591.214	347.81
591.307	324.81
591.401	283.81
591.495	360.81
591.589	340.81
591.683	318.81
591.777	363.81
591.87	626.81
591.964	334.81
592.058	313.81
592.152	367.81
592.245	287.81
592.339	355.81
592.433	442.81
592.527	347.81
592.62	268.81
592.714	343.81
592.808	386.81
592.901	335.81
592.995	328.81
593.089	554.81
593.182	368.81
593.276	337.81
593.37	293.81
593.463	311.81
593.557	314.81
593.65	325.81
593.744	323.81
593.837	364.81
593.931	300.81
594.025	2350.81
594.118	552.81
594.212	296.81
594.305	314.81
594.399	348.81
594.492	601.81
594.586	347.81
594.679	272.81
594.773	307.81
594.866	384.81
594.96	332.81
595.053	239.81
595.146	300.81
595.24	310.81
595.333	275.81
595.427	256.81
595.52	334.81
595.614	391.81
595.707	298.81
595.8	329.81
595.894	275.81
595.987	249.81
596.08	312.81
596.174	592.81
596.267	361.81
596.36	430.81
596.454	441.81
596.547	334.81
596.64	274.81
596.733	306.81
596.827	357.81
596.92	297.81
597.013	256.81
597.106	194.81
597.2	260.81
597.293	300.81
597.386	450.81
597.479	351.81
597.572	304.81
597.666	267.81
597.759	250.81
597.852	362.81
597.945	284.81
598.038	236.81
598.131	232.81
598.224	296.81
598.317	308.81
598.411	266.81
598.504	233.81
598.597	314.81
598.69	235.81
598.783	265.81
598.876	282.81
598.969	217.81
599.062	267.81
599.155	341.81
599.248	223.81
599.341	280.81
599.434	285.81
599.527	317.81
599.62	268.81
599.713	289.81
599.806	297.81
599.899	364.81
599.991	281.81
600.084	467.81
600.177	247.81
600.27	251.81
600.363	436.81
600.456	257.81
600.549	273.81
600.642	279.81
600.734	220.81
600.827	238.81
600.92	391.81
601.013	268.81
601.106	318.81
601.199	284.81
601.291	268.81
601.384	233.81
601.477	427.81
601.57	367.81
601.662	223.81
601.755	287.81
601.848	317.81
601.94	225.81
602.033	389.81
602.126	352.81
602.219	208.81
602.311	333.81
602.404	294.81
602.497	254.81
602.589	218.81
602.682	324.81
602.774	295.81
602.867	235.81
602.96	249.81
603.052	281.81
603.145	227.81
603.237	247.81
603.33	308.81
603.422	330.81
603.515	242.81
603.608	288.81
603.7	231.81
603.793	244.81
603.885	275.81
603.978	250.81
604.07	239.81
604.163	206.81
604.255	315.81
604.347	213.81
604.44	207.81
604.532	391.81
604.625	265.81
604.717	240.81
604.81	315.81
604.902	224.81
604.994	230.81
605.087	274.81
605.179	241.81
605.271	278.81
605.364	262.81
605.456	303.81
605.548	211.81
605.641	272.81
605.733	270.81
605.825	250.81
605.918	196.81
606.01	439.81
606.102	587.81
606.194	275.81
606.287	384.81
606.379	243.81
606.471	241.81
606.563	319.81
606.655	323.81
606.748	249.81
606.84	283.81
606.932	328.81
607.024	243.81
607.116	212.81
607.208	292.81
607.301	282.81
607.393	224.81
607.485	302.81
607.577	287.81
607.669	317.81
607.761	316.81
607.853	464.81
607.945	209.81
608.037	189.81
608.129	272.81
608.221	245.81
608.313	225.81
608.405	312.81
608.497	237.81
608.589	208.81
608.681	278.81
608.773	290.81
608.865	274.81
608.957	334.81
609.049	234.81
609.141	305.81
609.233	269.81
609.325	215.81
609.417	206.81
609.509	271.81
609.601	393.81
609.693	301.81
609.784	215.81
609.876	264.81
609.968	268.81
610.06	2308.81
610.152	491.81
610.244	907.81
610.335	303.81
610.427	274.81
610.519	277.81
610.611	245.81
610.702	249.81
610.794	287.81
610.886	313.81
610.978	245.81
611.069	682.81
611.161	266.81
611.253	319.81
611.344	282.81
611.436	184.81
611.528	254.81
611.62	218.81
611.711	229.81
611.803	191.81
611.894	189.81
611.986	225.81
612.078	204.81
612.169	222.81
612.261	253.81
612.352	184.81
612.444	172.81
612.536	316.81
612.627	184.81
612.719	124.81
612.81	170.81
612.902	147.81
612.993	187.81
613.085	171.81
613.176	156.81
613.268	175.81
613.359	118.81
613.451	197.81
613.542	166.81
613.634	124.81
613.725	208.81
613.816	201.81
613.908	115.81
613.999	141.81
614.091	99.81
614.182	65.81
614.273	151.81
614.365	127.81
614.456	72.81
614.547	75.81
614.639	101.81
614.73	86.81
614.821	138.81
614.913	106.81
615.004	39.81
615.095	49.81
615.187	98.81
