Data from sinsal_HRC06701__18__79.txt Node

Date: Thu Apr 18 01:41:21 CDT 2024
User: Estudiantes 2
Spectrometer: HR+C0670
Trigger mode: 4
Integration Time (sec): 1.000000E0
Scans to average: 1
Electric dark correction enabled: true
Nonlinearity correction enabled: false
Boxcar width: 0
XAxis mode: Wavelengths
Number of Pixels in Spectrum: 2048
>>>>>Begin Spectral Data<<<<<
407.81	-130.12
407.921	-130.12
408.032	-130.12
408.143	-122.12
408.254	-109.12
408.365	32.88
408.476	213.88
408.587	-12.12
408.699	-1.12
408.81	-12.12
408.921	-23.12
409.032	0.88
409.143	3.88
409.254	-4.12
409.365	107.88
409.476	-41.12
409.587	2.88
409.698	92.88
409.809	68.88
409.92	-30.12
410.031	-9.12
410.142	78.88
410.253	28.88
410.364	31.88
410.475	471.88
410.585	2062.88
410.696	2269.88
410.807	2242.88
410.918	2189.88
411.029	2255.88
411.14	2256.88
411.251	2240.88
411.362	2314.88
411.472	2352.88
411.583	2269.88
411.694	2354.88
411.805	2294.88
411.916	2417.88
412.026	2340.88
412.137	2315.88
412.248	2361.88
412.359	2324.88
412.47	2232.88
412.58	2227.88
412.691	2311.88
412.802	2173.88
412.912	2266.88
413.023	2206.88
413.134	2192.88
413.245	2315.88
413.355	2248.88
413.466	2199.88
413.577	2215.88
413.687	2338.88
413.798	2149.88
413.909	2273.88
414.019	2249.88
414.13	2238.88
414.24	2203.88
414.351	2309.88
414.462	2464.88
414.572	2243.88
414.683	2265.88
414.793	2318.88
414.904	2526.88
415.014	2249.88
415.125	2258.88
415.235	2274.88
415.346	2340.88
415.456	2399.88
415.567	2237.88
415.677	2253.88
415.788	2296.88
415.898	2225.88
416.009	2160.88
416.119	2232.88
416.23	2240.88
416.34	2191.88
416.45	2297.88
416.561	2687.88
416.671	2286.88
416.782	2178.88
416.892	2323.88
417.002	2264.88
417.113	2329.88
417.223	2321.88
417.333	2258.88
417.444	2276.88
417.554	2401.88
417.664	2423.88
417.775	2209.88
417.885	2356.88
417.995	2358.88
418.106	2523.88
418.216	2425.88
418.326	2529.88
418.436	2455.88
418.547	2476.88
418.657	2495.88
418.767	2612.88
418.877	2531.88
418.987	2577.88
419.098	2610.88
419.208	2582.88
419.318	2608.88
419.428	2727.88
419.538	2496.88
419.648	2601.88
419.759	2674.88
419.869	2555.88
419.979	2570.88
420.089	2559.88
420.199	2498.88
420.309	2559.88
420.419	2576.88
420.529	2619.88
420.639	2659.88
420.749	2579.88
420.859	2677.88
420.969	2667.88
421.079	2824.88
421.189	2670.88
421.299	2600.88
421.409	2622.88
421.519	2703.88
421.629	2769.88
421.739	2660.88
421.849	2750.88
421.959	2713.88
422.069	2801.88
422.179	2691.88
422.289	2771.88
422.399	2822.88
422.509	2801.88
422.619	4603.88
422.729	2987.88
422.838	2806.88
422.948	2957.88
423.058	2899.88
423.168	2933.88
423.278	3002.88
423.388	3058.88
423.498	3087.88
423.607	3070.88
423.717	3351.88
423.827	3237.88
423.937	3170.88
424.046	3223.88
424.156	3223.88
424.266	3114.88
424.376	3357.88
424.485	3263.88
424.595	3265.88
424.705	3228.88
424.815	3133.88
424.924	3532.88
425.034	3248.88
425.144	3203.88
425.253	3177.88
425.363	3338.88
425.473	3335.88
425.582	3093.88
425.692	3298.88
425.801	3280.88
425.911	3393.88
426.021	3324.88
426.13	3548.88
426.24	3494.88
426.349	3384.88
426.459	3433.88
426.568	3367.88
426.678	3539.88
426.787	3464.88
426.897	3431.88
427.006	3522.88
427.116	3507.88
427.225	3585.88
427.335	3599.88
427.444	3506.88
427.554	3611.88
427.663	3547.88
427.773	3473.88
427.882	3636.88
427.992	3552.88
428.101	3682.88
428.21	3658.88
428.32	3704.88
428.429	3609.88
428.539	3855.88
428.648	3810.88
428.757	3650.88
428.867	3720.88
428.976	3877.88
429.085	3739.88
429.195	3761.88
429.304	3832.88
429.413	3874.88
429.523	3856.88
429.632	3813.88
429.741	3947.88
429.85	3776.88
429.96	4018.88
430.069	4019.88
430.178	3881.88
430.287	4208.88
430.397	3996.88
430.506	3909.88
430.615	3999.88
430.724	4081.88
430.833	4032.88
430.943	4098.88
431.052	4097.88
431.161	4158.88
431.27	4091.88
431.379	4142.88
431.488	4466.88
431.597	4249.88
431.706	4327.88
431.816	4408.88
431.925	4238.88
432.034	4242.88
432.143	4360.88
432.252	4346.88
432.361	4229.88
432.47	4181.88
432.579	4173.88
432.688	4240.88
432.797	4319.88
432.906	4212.88
433.015	4329.88
433.124	4635.88
433.233	4332.88
433.342	4267.88
433.451	4360.88
433.56	4321.88
433.669	4331.88
433.778	4266.88
433.886	4430.88
433.995	4419.88
434.104	4505.88
434.213	4453.88
434.322	4606.88
434.431	4721.88
434.54	4669.88
434.649	4977.88
434.757	4806.88
434.866	4777.88
434.975	4722.88
435.084	4686.88
435.193	4609.88
435.301	4701.88
435.41	4632.88
435.519	4710.88
435.628	4183.88
435.737	4197.88
435.845	4066.88
435.954	4158.88
436.063	4243.88
436.171	4072.88
436.28	4123.88
436.389	4263.88
436.498	4123.88
436.606	4042.88
436.715	4223.88
436.823	3976.88
436.932	3919.88
437.041	3850.88
437.149	3928.88
437.258	3831.88
437.367	3819.88
437.475	3871.88
437.584	4007.88
437.692	3764.88
437.801	5143.88
437.91	3772.88
438.018	3704.88
438.127	3728.88
438.235	3817.88
438.344	3735.88
438.452	3758.88
438.561	3679.88
438.669	3730.88
438.778	3630.88
438.886	3757.88
438.995	3595.88
439.103	3625.88
439.212	3791.88
439.32	3740.88
439.428	3647.88
439.537	3704.88
439.645	3818.88
439.754	3745.88
439.862	3669.88
439.97	3742.88
440.079	3699.88
440.187	3682.88
440.295	3884.88
440.404	3731.88
440.512	3801.88
440.62	3915.88
440.729	3905.88
440.837	3927.88
440.945	4501.88
441.054	4010.88
441.162	3967.88
441.27	4182.88
441.378	4234.88
441.487	4200.88
441.595	4465.88
441.703	4238.88
441.811	4099.88
441.92	4040.88
442.028	3963.88
442.136	3998.88
442.244	3904.88
442.352	3972.88
442.461	3873.88
442.569	3815.88
442.677	3986.88
442.785	3991.88
442.893	3895.88
443.001	3850.88
443.109	3835.88
443.217	3923.88
443.325	3847.88
443.434	4406.88
443.542	4195.88
443.65	4005.88
443.758	4169.88
443.866	4035.88
443.974	4334.88
444.082	4234.88
444.19	4310.88
444.298	4340.88
444.406	4535.88
444.514	4751.88
444.622	4616.88
444.73	4656.88
444.838	4614.88
444.946	4608.88
445.054	4354.88
445.161	4385.88
445.269	4257.88
445.377	4158.88
445.485	4182.88
445.593	4033.88
445.701	4185.88
445.809	4069.88
445.917	3996.88
446.025	4027.88
446.132	4074.88
446.24	4106.88
446.348	4077.88
446.456	3904.88
446.564	3956.88
446.671	3919.88
446.779	3906.88
446.887	3970.88
446.995	3875.88
447.102	3990.88
447.21	3839.88
447.318	3843.88
447.426	3825.88
447.533	4061.88
447.641	4987.88
447.749	3957.88
447.856	3873.88
447.964	3889.88
448.072	3931.88
448.179	3808.88
448.287	4014.88
448.395	3952.88
448.502	3741.88
448.61	4001.88
448.718	3827.88
448.825	3926.88
448.933	3915.88
449.04	3992.88
449.148	3977.88
449.256	3950.88
449.363	4002.88
449.471	4065.88
449.578	4164.88
449.686	4118.88
449.793	4202.88
449.901	4094.88
450.008	4160.88
450.116	4217.88
450.223	4116.88
450.331	4274.88
450.438	4349.88
450.546	4337.88
450.653	4384.88
450.76	4562.88
450.868	4399.88
450.975	4705.88
451.083	4526.88
451.19	4540.88
451.297	4455.88
451.405	4583.88
451.512	4549.88
451.619	4541.88
451.727	4616.88
451.834	4596.88
451.941	4680.88
452.049	4488.88
452.156	4598.88
452.263	4715.88
452.371	4652.88
452.478	4751.88
452.585	4885.88
452.692	4677.88
452.8	4834.88
452.907	4924.88
453.014	4730.88
453.121	4872.88
453.229	4792.88
453.336	4836.88
453.443	4895.88
453.55	4860.88
453.657	4788.88
453.765	5021.88
453.872	4932.88
453.979	5022.88
454.086	5007.88
454.193	5017.88
454.3	4924.88
454.407	5006.88
454.514	5163.88
454.621	4989.88
454.729	4848.88
454.836	5007.88
454.943	5122.88
455.05	5006.88
455.157	5143.88
455.264	5038.88
455.371	5110.88
455.478	5173.88
455.585	6348.88
455.692	5333.88
455.799	5359.88
455.906	5220.88
456.013	5256.88
456.12	5186.88
456.227	5365.88
456.334	5396.88
456.44	5419.88
456.547	5351.88
456.654	5310.88
456.761	5258.88
456.868	5412.88
456.975	5449.88
457.082	5450.88
457.189	5332.88
457.296	5510.88
457.402	5490.88
457.509	5385.88
457.616	5546.88
457.723	5780.88
457.83	5569.88
457.936	5652.88
458.043	5933.88
458.15	5695.88
458.257	5767.88
458.363	6007.88
458.47	5939.88
458.577	6200.88
458.684	6054.88
458.79	6328.88
458.897	6353.88
459.004	6526.88
459.11	6394.88
459.217	6520.88
459.324	6619.88
459.43	6880.88
459.537	6875.88
459.644	6942.88
459.75	6933.88
459.857	7288.88
459.964	7189.88
460.07	7236.88
460.177	7239.88
460.283	7346.88
460.39	7608.88
460.496	7204.88
460.603	7313.88
460.71	7288.88
460.816	7278.88
460.923	7212.88
461.029	7225.88
461.136	7298.88
461.242	7065.88
461.349	7228.88
461.455	7371.88
461.562	7643.88
461.668	7543.88
461.774	7300.88
461.881	7438.88
461.987	7471.88
462.094	7746.88
462.2	7817.88
462.307	7722.88
462.413	7676.88
462.519	7979.88
462.626	8393.88
462.732	8449.88
462.838	8885.88
462.945	8982.88
463.051	9172.88
463.157	9063.88
463.264	8648.88
463.37	8303.88
463.476	8230.88
463.583	8065.88
463.689	7945.88
463.795	7991.88
463.901	8107.88
464.008	8207.88
464.114	8128.88
464.22	8229.88
464.326	8075.88
464.433	7771.88
464.539	7799.88
464.645	7539.88
464.751	7656.88
464.857	7322.88
464.963	6968.88
465.07	6801.88
465.176	6563.88
465.282	6425.88
465.388	6487.88
465.494	6123.88
465.6	6086.88
465.706	5874.88
465.812	5882.88
465.918	5900.88
466.024	5664.88
466.131	5645.88
466.237	5477.88
466.343	5404.88
466.449	5356.88
466.555	5263.88
466.661	5239.88
466.767	5160.88
466.873	5104.88
466.979	5234.88
467.085	5095.88
467.191	5155.88
467.296	5132.88
467.402	4961.88
467.508	5061.88
467.614	5187.88
467.72	4931.88
467.826	4774.88
467.932	4791.88
468.038	4741.88
468.144	4658.88
468.25	4585.88
468.355	4722.88
468.461	4704.88
468.567	4517.88
468.673	4705.88
468.779	4552.88
468.885	4593.88
468.99	4570.88
469.096	4614.88
469.202	4666.88
469.308	4635.88
469.413	4757.88
469.519	4657.88
469.625	4705.88
469.731	4745.88
469.836	4690.88
469.942	4952.88
470.048	4857.88
470.153	4807.88
470.259	4784.88
470.365	4820.88
470.47	4887.88
470.576	4657.88
470.682	4718.88
470.787	4589.88
470.893	4406.88
470.999	4581.88
471.104	4533.88
471.21	4400.88
471.315	4230.88
471.421	4293.88
471.527	4485.88
471.632	4295.88
471.738	4324.88
471.843	4136.88
471.949	4223.88
472.054	4097.88
472.16	4150.88
472.265	4079.88
472.371	4030.88
472.476	4083.88
472.582	4085.88
472.687	3993.88
472.793	3988.88
472.898	3953.88
473.003	3931.88
473.109	3887.88
473.214	3801.88
473.32	3803.88
473.425	3852.88
473.53	3832.88
473.636	3838.88
473.741	3845.88
473.847	3851.88
473.952	3901.88
474.057	3886.88
474.163	3950.88
474.268	3895.88
474.373	3818.88
474.478	3871.88
474.584	3750.88
474.689	3863.88
474.794	3910.88
474.9	4017.88
475.005	3815.88
475.11	3983.88
475.215	3921.88
475.321	3878.88
475.426	4056.88
475.531	4023.88
475.636	3822.88
475.741	3841.88
475.846	4099.88
475.952	3978.88
476.057	3888.88
476.162	4020.88
476.267	4028.88
476.372	4169.88
476.477	4001.88
476.582	4134.88
476.687	3979.88
476.793	4029.88
476.898	4095.88
477.003	3986.88
477.108	4063.88
477.213	4115.88
477.318	4027.88
477.423	4257.88
477.528	4305.88
477.633	4250.88
477.738	4299.88
477.843	4321.88
477.948	4478.88
478.053	4375.88
478.158	4462.88
478.263	4484.88
478.368	4452.88
478.473	4573.88
478.578	4641.88
478.682	4447.88
478.787	4680.88
478.892	4642.88
478.997	4615.88
479.102	4519.88
479.207	4675.88
479.312	4689.88
479.417	4617.88
479.521	4672.88
479.626	4837.88
479.731	4688.88
479.836	4799.88
479.941	5018.88
480.045	4931.88
480.15	4948.88
480.255	5064.88
480.36	5071.88
480.465	5027.88
480.569	5135.88
480.674	4927.88
480.779	4771.88
480.883	4773.88
480.988	4925.88
481.093	4756.88
481.197	4820.88
481.302	4870.88
481.407	4819.88
481.511	6411.88
481.616	4938.88
481.721	4800.88
481.825	4931.88
481.93	4834.88
482.035	4837.88
482.139	5011.88
482.244	4885.88
482.348	4861.88
482.453	4805.88
482.557	4987.88
482.662	5081.88
482.767	4916.88
482.871	4933.88
482.976	5064.88
483.08	5028.88
483.185	5154.88
483.289	5060.88
483.394	5091.88
483.498	5121.88
483.603	5099.88
483.707	5208.88
483.811	5326.88
483.916	5282.88
484.02	5346.88
484.125	5515.88
484.229	5456.88
484.333	5577.88
484.438	5413.88
484.542	5444.88
484.647	5522.88
484.751	5555.88
484.855	5572.88
484.96	5554.88
485.064	5710.88
485.168	5723.88
485.273	5704.88
485.377	5855.88
485.481	5940.88
485.585	5831.88
485.69	5950.88
485.794	6028.88
485.898	6003.88
486.002	6102.88
486.107	6026.88
486.211	5936.88
486.315	6113.88
486.419	6090.88
486.524	6080.88
486.628	5996.88
486.732	6062.88
486.836	6001.88
486.94	6145.88
487.044	6111.88
487.148	6030.88
487.253	6008.88
487.357	6089.88
487.461	6234.88
487.565	6087.88
487.669	5975.88
487.773	5924.88
487.877	6069.88
487.981	6061.88
488.085	6082.88
488.189	6034.88
488.293	6217.88
488.397	6510.88
488.501	6186.88
488.605	6006.88
488.709	6108.88
488.813	5973.88
488.917	5936.88
489.021	6166.88
489.125	6237.88
489.229	5977.88
489.333	6167.88
489.437	6228.88
489.541	6243.88
489.645	6086.88
489.749	6105.88
489.853	6135.88
489.956	6065.88
490.06	6180.88
490.164	6253.88
490.268	6074.88
490.372	6238.88
490.476	6100.88
490.579	6034.88
490.683	6751.88
490.787	6153.88
490.891	6077.88
490.995	6142.88
491.098	6139.88
491.202	6111.88
491.306	6102.88
491.41	6171.88
491.513	6045.88
491.617	6166.88
491.721	6323.88
491.824	6100.88
491.928	6076.88
492.032	6376.88
492.136	6092.88
492.239	6076.88
492.343	6187.88
492.446	6518.88
492.55	6084.88
492.654	6020.88
492.757	6164.88
492.861	6117.88
492.965	6059.88
493.068	6133.88
493.172	6072.88
493.275	6092.88
493.379	6040.88
493.482	6286.88
493.586	6252.88
493.689	6314.88
493.793	6174.88
493.896	6234.88
494	6133.88
494.103	6284.88
494.207	6474.88
494.31	6439.88
494.414	6301.88
494.517	6040.88
494.621	6033.88
494.724	6109.88
494.828	6053.88
494.931	6011.88
495.034	5986.88
495.138	6165.88
495.241	5913.88
495.345	6576.88
495.448	6162.88
495.551	5910.88
495.655	5847.88
495.758	6009.88
495.861	5887.88
495.965	6000.88
496.068	6141.88
496.171	6016.88
496.274	5919.88
496.378	6090.88
496.481	6124.88
496.584	6002.88
496.687	6130.88
496.791	6185.88
496.894	6041.88
496.997	6090.88
497.1	6172.88
497.204	6111.88
497.307	6062.88
497.41	6437.88
497.513	6549.88
497.616	6353.88
497.719	6464.88
497.823	6588.88
497.926	6538.88
498.029	6744.88
498.132	6823.88
498.235	6921.88
498.338	6949.88
498.441	7371.88
498.544	7349.88
498.647	7519.88
498.75	7792.88
498.853	8099.88
498.956	8189.88
499.059	8643.88
499.163	8721.88
499.266	9014.88
499.369	9392.88
499.471	9738.88
499.574	10279.88
499.677	10388.88
499.78	11033.88
499.883	11599.88
499.986	12267.88
500.089	12735.88
500.192	12844.88
500.295	13110.88
500.398	13119.88
500.501	12827.88
500.604	12421.88
500.707	12029.88
500.809	11533.88
500.912	11026.88
501.015	10520.88
501.118	9980.88
501.221	9586.88
501.324	8980.88
501.426	8757.88
501.529	8179.88
501.632	8038.88
501.735	7689.88
501.837	7395.88
501.94	7223.88
502.043	7117.88
502.146	6858.88
502.248	6654.88
502.351	6673.88
502.454	6555.88
502.557	6315.88
502.659	6196.88
502.762	6000.88
502.865	5922.88
502.967	5863.88
503.07	5675.88
503.173	5722.88
503.275	5646.88
503.378	5587.88
503.48	5494.88
503.583	5451.88
503.686	5549.88
503.788	5695.88
503.891	5455.88
503.993	5602.88
504.096	5467.88
504.198	5442.88
504.301	5351.88
504.403	5489.88
504.506	5379.88
504.608	5299.88
504.711	5185.88
504.813	5192.88
504.916	5011.88
505.018	4811.88
505.121	4760.88
505.223	4695.88
505.326	4763.88
505.428	4749.88
505.531	4509.88
505.633	4517.88
505.735	4462.88
505.838	4402.88
505.94	4370.88
506.042	4355.88
506.145	4337.88
506.247	4364.88
506.35	4241.88
506.452	4300.88
506.554	4212.88
506.656	4265.88
506.759	4141.88
506.861	4222.88
506.963	4146.88
507.066	4241.88
507.168	4246.88
507.27	4158.88
507.372	4056.88
507.475	4101.88
507.577	4149.88
507.679	4033.88
507.781	4059.88
507.883	4009.88
507.986	3936.88
508.088	3972.88
508.19	3969.88
508.292	4016.88
508.394	3943.88
508.496	3916.88
508.598	3952.88
508.701	3967.88
508.803	3924.88
508.905	3929.88
509.007	3875.88
509.109	3933.88
509.211	3889.88
509.313	3929.88
509.415	3838.88
509.517	3807.88
509.619	3749.88
509.721	3878.88
509.823	3815.88
509.925	3977.88
510.027	3818.88
510.129	3810.88
510.231	3798.88
510.333	3847.88
510.435	3769.88
510.537	3866.88
510.639	3758.88
510.741	3781.88
510.843	3745.88
510.945	3612.88
511.047	3809.88
511.148	3818.88
511.25	3733.88
511.352	3838.88
511.454	3635.88
511.556	3911.88
511.658	3827.88
511.76	3845.88
511.861	3952.88
511.963	3730.88
512.065	3787.88
512.167	3766.88
512.268	3974.88
512.37	3855.88
512.472	3791.88
512.574	3824.88
512.676	3867.88
512.777	3714.88
512.879	3787.88
512.981	3862.88
513.082	3764.88
513.184	3801.88
513.286	4238.88
513.387	3969.88
513.489	4040.88
513.591	3895.88
513.692	3961.88
513.794	3939.88
513.896	3847.88
513.997	3892.88
514.099	3779.88
514.2	3966.88
514.302	3903.88
514.404	3934.88
514.505	3936.88
514.607	4067.88
514.708	3942.88
514.81	3956.88
514.911	4073.88
515.013	4184.88
515.114	4139.88
515.216	4042.88
515.317	4193.88
515.419	4032.88
515.52	4261.88
515.622	4218.88
515.723	4271.88
515.825	4364.88
515.926	4290.88
516.027	4348.88
516.129	4459.88
516.23	4552.88
516.332	4573.88
516.433	4613.88
516.534	4704.88
516.636	4814.88
516.737	4742.88
516.838	5801.88
516.94	5062.88
517.041	5114.88
517.142	5305.88
517.244	5398.88
517.345	5380.88
517.446	5482.88
517.547	5585.88
517.649	5489.88
517.75	5495.88
517.851	5451.88
517.952	5726.88
518.054	5510.88
518.155	5435.88
518.256	5313.88
518.357	5280.88
518.458	5116.88
518.56	5105.88
518.661	4957.88
518.762	4926.88
518.863	5015.88
518.964	4863.88
519.065	4730.88
519.166	4802.88
519.268	4645.88
519.369	4875.88
519.47	4711.88
519.571	4654.88
519.672	4532.88
519.773	4408.88
519.874	4629.88
519.975	4502.88
520.076	4586.88
520.177	4638.88
520.278	4453.88
520.379	4406.88
520.48	4343.88
520.581	4406.88
520.682	4430.88
520.783	4505.88
520.884	4479.88
520.985	4344.88
521.086	4318.88
521.187	4497.88
521.288	4337.88
521.389	4346.88
521.489	4365.88
521.59	4288.88
521.691	4350.88
521.792	4389.88
521.893	4457.88
521.994	4442.88
522.095	4421.88
522.195	4442.88
522.296	4381.88
522.397	4434.88
522.498	4438.88
522.599	4257.88
522.699	4323.88
522.8	4402.88
522.901	4503.88
523.002	4377.88
523.102	4549.88
523.203	4384.88
523.304	4613.88
523.405	4348.88
523.505	4466.88
523.606	4473.88
523.707	4440.88
523.807	4478.88
523.908	4382.88
524.009	4487.88
524.109	4425.88
524.21	4395.88
524.31	4432.88
524.411	4597.88
524.512	4605.88
524.612	4511.88
524.713	4616.88
524.813	4504.88
524.914	4697.88
525.014	9198.88
525.115	4840.88
525.216	4368.88
525.316	4497.88
525.417	4469.88
525.517	4351.88
525.618	4512.88
525.718	4412.88
525.819	4283.88
525.919	4402.88
526.019	4320.88
526.12	4503.88
526.22	4257.88
526.321	4292.88
526.421	4362.88
526.522	4306.88
526.622	4278.88
526.722	4389.88
526.823	4382.88
526.923	4346.88
527.023	4461.88
527.124	4362.88
527.224	4434.88
527.324	4275.88
527.425	4484.88
527.525	4300.88
527.625	4244.88
527.726	4317.88
527.826	4400.88
527.926	4376.88
528.026	4427.88
528.127	4351.88
528.227	4447.88
528.327	4441.88
528.427	4438.88
528.528	4385.88
528.628	4523.88
528.728	4434.88
528.828	4558.88
528.928	4507.88
529.029	4430.88
529.129	4398.88
529.229	4466.88
529.329	4480.88
529.429	4460.88
529.529	4483.88
529.629	4526.88
529.729	4264.88
529.829	4420.88
529.93	4329.88
530.03	4378.88
530.13	4250.88
530.23	4231.88
530.33	4291.88
530.43	4192.88
530.53	4151.88
530.63	4251.88
530.73	4080.88
530.83	4162.88
530.93	4179.88
531.03	4111.88
531.13	4171.88
531.23	4168.88
531.33	4190.88
531.429	4124.88
531.529	4140.88
531.629	4208.88
531.729	4050.88
531.829	4150.88
531.929	4162.88
532.029	4141.88
532.129	4082.88
532.229	4184.88
532.328	4032.88
532.428	3974.88
532.528	4009.88
532.628	4003.88
532.728	4090.88
532.827	3989.88
532.927	4194.88
533.027	3996.88
533.127	4139.88
533.227	4157.88
533.326	4139.88
533.426	4066.88
533.526	4217.88
533.625	4126.88
533.725	4203.88
533.825	3997.88
533.924	3905.88
534.024	3837.88
534.124	3813.88
534.223	3883.88
534.323	4146.88
534.423	3916.88
534.522	3873.88
534.622	3703.88
534.722	3753.88
534.821	3918.88
534.921	3863.88
535.02	3643.88
535.12	3842.88
535.219	3899.88
535.319	3854.88
535.419	3923.88
535.518	3685.88
535.618	3725.88
535.717	3763.88
535.817	3650.88
535.916	3577.88
536.016	3679.88
536.115	3620.88
536.215	3557.88
536.314	3484.88
536.413	3501.88
536.513	3477.88
536.612	3513.88
536.712	3443.88
536.811	3481.88
536.91	3379.88
537.01	3390.88
537.109	3487.88
537.209	3489.88
537.308	3427.88
537.407	3377.88
537.507	3469.88
537.606	3345.88
537.705	3525.88
537.805	3388.88
537.904	3301.88
538.003	3432.88
538.102	3480.88
538.202	3386.88
538.301	3484.88
538.4	3471.88
538.499	3346.88
538.599	3423.88
538.698	3674.88
538.797	3331.88
538.896	3470.88
538.995	3434.88
539.095	3379.88
539.194	3551.88
539.293	3394.88
539.392	3279.88
539.491	3339.88
539.59	3262.88
539.689	3350.88
539.789	3234.88
539.888	3149.88
539.987	3140.88
540.086	3195.88
540.185	3232.88
540.284	3310.88
540.383	3229.88
540.482	3207.88
540.581	3294.88
540.68	3264.88
540.779	3252.88
540.878	3239.88
540.977	3338.88
541.076	3209.88
541.175	3272.88
541.274	3511.88
541.373	3282.88
541.472	3318.88
541.571	3259.88
541.67	4384.88
541.769	3347.88
541.868	3270.88
541.966	3283.88
542.065	3174.88
542.164	3145.88
542.263	3091.88
542.362	3158.88
542.461	3205.88
542.56	3266.88
542.658	3194.88
542.757	3098.88
542.856	3019.88
542.955	2983.88
543.054	3005.88
543.152	3228.88
543.251	3063.88
543.35	3142.88
543.449	3143.88
543.547	3087.88
543.646	3105.88
543.745	3161.88
543.843	3167.88
543.942	3182.88
544.041	3050.88
544.14	3227.88
544.238	3160.88
544.337	3296.88
544.436	3254.88
544.534	3259.88
544.633	3205.88
544.731	3258.88
544.83	3258.88
544.929	3225.88
545.027	3141.88
545.126	3184.88
545.224	3249.88
545.323	3193.88
545.421	3339.88
545.52	3252.88
545.619	3277.88
545.717	3242.88
545.816	3283.88
545.914	3261.88
546.013	3401.88
546.111	3358.88
546.209	3204.88
546.308	3206.88
546.406	3299.88
546.505	3283.88
546.603	3215.88
546.702	3205.88
546.8	3139.88
546.899	3159.88
546.997	3263.88
547.095	3146.88
547.194	3137.88
547.292	3173.88
547.39	3199.88
547.489	3121.88
547.587	3480.88
547.685	3241.88
547.784	3338.88
547.882	3248.88
547.98	3181.88
548.079	3231.88
548.177	3156.88
548.275	3198.88
548.373	3252.88
548.472	3118.88
548.57	3170.88
548.668	3253.88
548.766	3121.88
548.864	3322.88
548.963	3170.88
549.061	3310.88
549.159	3167.88
549.257	3313.88
549.355	3261.88
549.454	3257.88
549.552	3318.88
549.65	3220.88
549.748	3201.88
549.846	3276.88
549.944	3184.88
550.042	3174.88
550.14	3230.88
550.238	3195.88
550.336	3074.88
550.434	3022.88
550.532	3121.88
550.631	3123.88
550.729	3100.88
550.827	3203.88
550.925	3049.88
551.023	3118.88
551.121	3151.88
551.218	3050.88
551.316	2994.88
551.414	3083.88
551.512	3032.88
551.61	3038.88
551.708	3066.88
551.806	3076.88
551.904	3050.88
552.002	3140.88
552.1	3232.88
552.198	3140.88
552.296	3331.88
552.393	3364.88
552.491	3442.88
552.589	3371.88
552.687	3464.88
552.785	3435.88
552.882	3486.88
552.98	3603.88
553.078	3616.88
553.176	3528.88
553.274	3450.88
553.371	3527.88
553.469	3430.88
553.567	3352.88
553.665	3397.88
553.762	3729.88
553.86	3456.88
553.958	3449.88
554.055	3383.88
554.153	3356.88
554.251	3288.88
554.348	3291.88
554.446	3092.88
554.544	3171.88
554.641	3502.88
554.739	3185.88
554.837	3182.88
554.934	3202.88
555.032	3119.88
555.129	3062.88
555.227	3423.88
555.324	6931.88
555.422	3311.88
555.519	3045.88
555.617	2956.88
555.715	2927.88
555.812	4336.88
555.91	2953.88
556.007	2946.88
556.105	2933.88
556.202	3034.88
556.299	2907.88
556.397	2912.88
556.494	2944.88
556.592	2837.88
556.689	2936.88
556.787	2956.88
556.884	2876.88
556.981	2924.88
557.079	2877.88
557.176	2880.88
557.273	2921.88
557.371	2967.88
557.468	2912.88
557.566	2914.88
557.663	2897.88
557.76	2968.88
557.857	2881.88
557.955	2907.88
558.052	3013.88
558.149	2998.88
558.247	2967.88
558.344	2912.88
558.441	2827.88
558.538	2820.88
558.636	2875.88
558.733	2947.88
558.83	2895.88
558.927	2821.88
559.024	2977.88
559.122	2837.88
559.219	2864.88
559.316	2983.88
559.413	2939.88
559.51	2863.88
559.607	2857.88
559.704	2927.88
559.801	2952.88
559.899	2968.88
559.996	3152.88
560.093	2922.88
560.19	2816.88
560.287	3032.88
560.384	3010.88
560.481	2831.88
560.578	2999.88
560.675	2882.88
560.772	2978.88
560.869	2892.88
560.966	3071.88
561.063	2926.88
561.16	3080.88
561.257	2975.88
561.354	2882.88
561.451	2958.88
561.548	3006.88
561.645	3077.88
561.742	2967.88
561.838	2939.88
561.935	2921.88
562.032	2922.88
562.129	3016.88
562.226	2940.88
562.323	2968.88
562.42	3077.88
562.516	3087.88
562.613	2879.88
562.71	2950.88
562.807	3655.88
562.904	2977.88
563	2951.88
563.097	3007.88
563.194	3006.88
563.291	2990.88
563.387	3074.88
563.484	3072.88
563.581	2985.88
563.678	3083.88
563.774	3433.88
563.871	3103.88
563.968	3039.88
564.064	3162.88
564.161	3125.88
564.258	3047.88
564.354	3243.88
564.451	3231.88
564.548	3273.88
564.644	3278.88
564.741	3200.88
564.837	3268.88
564.934	3286.88
565.031	3275.88
565.127	3264.88
565.224	3391.88
565.32	3526.88
565.417	3394.88
565.513	3578.88
565.61	3698.88
565.706	3618.88
565.803	3766.88
565.899	3732.88
565.996	3868.88
566.092	3966.88
566.189	4026.88
566.285	4233.88
566.382	4341.88
566.478	4576.88
566.574	4704.88
566.671	4543.88
566.767	4623.88
566.864	4615.88
566.96	4589.88
567.056	4627.88
567.153	4935.88
567.249	4803.88
567.345	4872.88
567.442	5227.88
567.538	5149.88
567.634	5226.88
567.731	5347.88
567.827	5248.88
567.923	5218.88
568.019	5023.88
568.116	4794.88
568.212	4593.88
568.308	4458.88
568.404	4354.88
568.501	4167.88
568.597	4071.88
568.693	3943.88
568.789	4261.88
568.885	3599.88
568.982	3580.88
569.078	3503.88
569.174	3421.88
569.27	3240.88
569.366	3365.88
569.462	3255.88
569.558	3151.88
569.655	3203.88
569.751	2975.88
569.847	3009.88
569.943	3107.88
570.039	3012.88
570.135	3396.88
570.231	3036.88
570.327	3064.88
570.423	3018.88
570.519	3068.88
570.615	3030.88
570.711	3065.88
570.807	3129.88
570.903	3168.88
570.999	3005.88
571.095	3085.88
571.191	2968.88
571.287	3040.88
571.383	2922.88
571.479	2935.88
571.574	3036.88
571.67	2883.88
571.766	3036.88
571.862	2786.88
571.958	2753.88
572.054	2844.88
572.15	2707.88
572.246	2488.88
572.341	2636.88
572.437	2664.88
572.533	2556.88
572.629	2513.88
572.725	2587.88
572.82	2559.88
572.916	2650.88
573.012	2582.88
573.108	2556.88
573.203	2467.88
573.299	2431.88
573.395	2446.88
573.49	2372.88
573.586	2329.88
573.682	2479.88
573.778	2500.88
573.873	2324.88
573.969	2352.88
574.065	2391.88
574.16	2374.88
574.256	2393.88
574.351	2411.88
574.447	2358.88
574.543	2374.88
574.638	2550.88
574.734	2452.88
574.829	2545.88
574.925	2454.88
575.02	2299.88
575.116	2280.88
575.212	2386.88
575.307	2381.88
575.403	2298.88
575.498	2399.88
575.594	2239.88
575.689	2265.88
575.784	2293.88
575.88	2338.88
575.975	2340.88
576.071	2192.88
576.166	2245.88
576.262	2273.88
576.357	2186.88
576.452	2409.88
576.548	2250.88
576.643	2170.88
576.739	2281.88
576.834	2184.88
576.929	2192.88
577.025	2702.88
577.12	2166.88
577.215	2059.88
577.311	2140.88
577.406	2165.88
577.501	2230.88
577.597	1999.88
577.692	2233.88
577.787	2219.88
577.882	2078.88
577.978	2120.88
578.073	1994.88
578.168	1951.88
578.263	2018.88
578.358	2008.88
578.454	1911.88
578.549	1957.88
578.644	1968.88
578.739	1995.88
578.834	1967.88
578.929	1915.88
579.025	1905.88
579.12	1989.88
579.215	2213.88
579.31	2019.88
579.405	1841.88
579.5	1954.88
579.595	1897.88
579.69	1825.88
579.785	1868.88
579.88	1815.88
579.975	1848.88
580.07	1847.88
580.165	1878.88
580.26	1849.88
580.355	1795.88
580.45	1958.88
580.545	1755.88
580.64	1826.88
580.735	1930.88
580.83	1850.88
580.925	1811.88
581.02	1816.88
581.115	1777.88
581.21	1666.88
581.305	1798.88
581.4	1801.88
581.495	1765.88
581.589	1722.88
581.684	1746.88
581.779	1795.88
581.874	1855.88
581.969	1839.88
582.064	1701.88
582.158	1653.88
582.253	1718.88
582.348	1754.88
582.443	1689.88
582.537	1701.88
582.632	1927.88
582.727	1688.88
582.822	1653.88
582.916	1685.88
583.011	1696.88
583.106	1677.88
583.201	1697.88
583.295	1673.88
583.39	1579.88
583.485	1637.88
583.579	3113.88
583.674	1732.88
583.769	1794.88
583.863	1606.88
583.958	1559.88
584.052	1505.88
584.147	1613.88
584.242	1492.88
584.336	1561.88
584.431	1759.88
584.525	1532.88
584.62	1707.88
584.714	1607.88
584.809	1578.88
584.903	1555.88
584.998	1613.88
585.092	1501.88
585.187	1561.88
585.281	1523.88
585.376	1584.88
585.47	1527.88
585.565	1448.88
585.659	1476.88
585.754	1467.88
585.848	1497.88
585.942	1522.88
586.037	1444.88
586.131	3363.88
586.226	1594.88
586.32	1522.88
586.414	1394.88
586.509	1543.88
586.603	1553.88
586.697	1410.88
586.792	1380.88
586.886	1464.88
586.98	1535.88
587.075	1406.88
587.169	1443.88
587.263	1612.88
587.357	1444.88
587.452	1377.88
587.546	1514.88
587.64	1377.88
587.734	1419.88
587.829	1503.88
587.923	1337.88
588.017	1346.88
588.111	1432.88
588.205	1454.88
588.3	1329.88
588.394	1343.88
588.488	1323.88
588.582	1380.88
588.676	1378.88
588.77	1454.88
588.864	1480.88
588.958	1409.88
589.052	1373.88
589.147	1385.88
589.241	1418.88
589.335	1379.88
589.429	1434.88
589.523	1333.88
589.617	1443.88
589.711	1382.88
589.805	1411.88
589.899	1467.88
589.993	1373.88
590.087	1334.88
590.181	1305.88
590.275	1367.88
590.369	1323.88
590.462	1298.88
590.556	1282.88
590.65	1303.88
590.744	1307.88
590.838	1398.88
590.932	1316.88
591.026	1362.88
591.12	1495.88
591.214	1426.88
591.307	1400.88
591.401	1369.88
591.495	1452.88
591.589	1361.88
591.683	1406.88
591.777	1475.88
591.87	1691.88
591.964	1460.88
592.058	1414.88
592.152	1533.88
592.245	1460.88
592.339	1533.88
592.433	1532.88
592.527	1619.88
592.62	1492.88
592.714	1536.88
592.808	1529.88
592.901	1586.88
592.995	1563.88
593.089	1773.88
593.182	1599.88
593.276	1615.88
593.37	1505.88
593.463	1550.88
593.557	1581.88
593.65	1571.88
593.744	1640.88
593.837	1696.88
593.931	1562.88
594.025	3593.88
594.118	1783.88
594.212	1583.88
594.305	1496.88
594.399	1575.88
594.492	1891.88
594.586	1558.88
594.679	1497.88
594.773	1452.88
594.866	1426.88
594.96	1450.88
595.053	1422.88
595.146	1384.88
595.24	1342.88
595.333	1365.88
595.427	1296.88
595.52	1251.88
595.614	1372.88
595.707	1295.88
595.8	1246.88
595.894	1242.88
595.987	1244.88
596.08	1153.88
596.174	1495.88
596.267	1340.88
596.36	1268.88
596.454	1290.88
596.547	1263.88
596.64	1154.88
596.733	1126.88
596.827	1206.88
596.92	1155.88
597.013	1101.88
597.106	1069.88
597.2	1142.88
597.293	1062.88
597.386	1192.88
597.479	1219.88
597.572	1118.88
597.666	1063.88
597.759	1110.88
597.852	1179.88
597.945	1002.88
598.038	1061.88
598.131	1050.88
598.224	1087.88
598.317	1128.88
598.411	1143.88
598.504	986.88
598.597	1069.88
598.69	1081.88
598.783	1048.88
598.876	1109.88
598.969	1137.88
599.062	1029.88
599.155	1101.88
599.248	1061.88
599.341	1068.88
599.434	1011.88
599.527	1093.88
599.62	1073.88
599.713	1013.88
599.806	1118.88
599.899	1251.88
599.991	999.88
600.084	1199.88
600.177	1053.88
600.27	1024.88
600.363	1177.88
600.456	1022.88
600.549	1095.88
600.642	1004.88
600.734	1019.88
600.827	1062.88
600.92	1098.88
601.013	1026.88
601.106	1172.88
601.199	1038.88
601.291	994.88
601.384	1116.88
601.477	1145.88
601.57	1119.88
601.662	1085.88
601.755	1065.88
601.848	1071.88
601.94	1010.88
602.033	1179.88
602.126	1054.88
602.219	1011.88
602.311	1200.88
602.404	1047.88
602.497	989.88
602.589	1028.88
602.682	1060.88
602.774	1075.88
602.867	1055.88
602.96	1055.88
603.052	982.88
603.145	1052.88
603.237	1049.88
603.33	1047.88
603.422	1099.88
603.515	1053.88
603.608	1018.88
603.7	983.88
603.793	1038.88
603.885	1030.88
603.978	993.88
604.07	1028.88
604.163	998.88
604.255	1015.88
604.347	943.88
604.44	998.88
604.532	1028.88
604.625	968.88
604.717	1024.88
604.81	1012.88
604.902	935.88
604.994	987.88
605.087	957.88
605.179	976.88
605.271	1047.88
605.364	969.88
605.456	971.88
605.548	996.88
605.641	1051.88
605.733	989.88
605.825	1061.88
605.918	984.88
606.01	1128.88
606.102	1285.88
606.194	1067.88
606.287	1108.88
606.379	966.88
606.471	1077.88
606.563	1016.88
606.655	1058.88
606.748	1114.88
606.84	990.88
606.932	1053.88
607.024	958.88
607.116	967.88
607.208	990.88
607.301	1000.88
607.393	1011.88
607.485	990.88
607.577	990.88
607.669	1102.88
607.761	995.88
607.853	1198.88
607.945	947.88
608.037	900.88
608.129	960.88
608.221	948.88
608.313	930.88
608.405	1028.88
608.497	1006.88
608.589	977.88
608.681	997.88
608.773	1017.88
608.865	994.88
608.957	1018.88
609.049	914.88
609.141	1063.88
609.233	983.88
609.325	937.88
609.417	937.88
609.509	1047.88
609.601	1096.88
609.693	1063.88
609.784	981.88
609.876	946.88
609.968	1000.88
610.06	2859.88
610.152	1196.88
610.244	1635.88
610.335	1018.88
610.427	946.88
610.519	887.88
610.611	991.88
610.702	952.88
610.794	922.88
610.886	963.88
610.978	962.88
611.069	1243.88
611.161	926.88
611.253	987.88
611.344	813.88
611.436	782.88
611.528	931.88
611.62	867.88
611.711	849.88
611.803	834.88
611.894	792.88
611.986	807.88
612.078	822.88
612.169	781.88
612.261	783.88
612.352	738.88
612.444	787.88
612.536	850.88
612.627	740.88
612.719	716.88
612.81	674.88
612.902	697.88
612.993	718.88
613.085	692.88
613.176	556.88
613.268	675.88
613.359	663.88
613.451	658.88
613.542	657.88
613.634	647.88
613.725	640.88
613.816	671.88
613.908	590.88
613.999	561.88
614.091	526.88
614.182	516.88
614.273	595.88
614.365	490.88
614.456	474.88
614.547	503.88
614.639	443.88
614.73	480.88
614.821	573.88
614.913	422.88
615.004	379.88
615.095	434.88
615.187	370.88
