Data from sinsal_HRC06701__7__68.txt Node

Date: Thu Apr 18 01:41:10 CDT 2024
User: Estudiantes 2
Spectrometer: HR+C0670
Trigger mode: 4
Integration Time (sec): 1.000000E0
Scans to average: 1
Electric dark correction enabled: true
Nonlinearity correction enabled: false
Boxcar width: 0
XAxis mode: Wavelengths
Number of Pixels in Spectrum: 2048
>>>>>Begin Spectral Data<<<<<
407.81	-120.94
407.921	-120.94
408.032	-120.94
408.143	-91.94
408.254	-85.94
408.365	3.06
408.476	210.06
408.587	16.06
408.699	0.06
408.81	-27.94
408.921	2.06
409.032	-65.94
409.143	26.06
409.254	53.06
409.365	63.06
409.476	-39.94
409.587	14.06
409.698	45.06
409.809	77.06
409.92	-48.94
410.031	-4.94
410.142	51.06
410.253	1.06
410.364	78.06
410.475	428.06
410.585	2338.06
410.696	2618.06
410.807	2525.06
410.918	2485.06
411.029	2546.06
411.14	2553.06
411.251	2510.06
411.362	2616.06
411.472	2672.06
411.583	2548.06
411.694	2706.06
411.805	2613.06
411.916	2630.06
412.026	2705.06
412.137	2692.06
412.248	2665.06
412.359	2609.06
412.47	2582.06
412.58	2533.06
412.691	2586.06
412.802	2569.06
412.912	2624.06
413.023	2555.06
413.134	2532.06
413.245	2641.06
413.355	2512.06
413.466	2515.06
413.577	2587.06
413.687	2591.06
413.798	2473.06
413.909	2629.06
414.019	2506.06
414.13	2591.06
414.24	2609.06
414.351	2683.06
414.462	2811.06
414.572	2655.06
414.683	2669.06
414.793	2636.06
414.904	2889.06
415.014	2604.06
415.125	2546.06
415.235	2596.06
415.346	2776.06
415.456	2694.06
415.567	2554.06
415.677	2661.06
415.788	2641.06
415.898	2576.06
416.009	2489.06
416.119	2621.06
416.23	2501.06
416.34	2516.06
416.45	2618.06
416.561	3307.06
416.671	2687.06
416.782	2605.06
416.892	2555.06
417.002	2598.06
417.113	2659.06
417.223	2621.06
417.333	2544.06
417.444	2618.06
417.554	2754.06
417.664	2678.06
417.775	2578.06
417.885	2734.06
417.995	2668.06
418.106	2878.06
418.216	2788.06
418.326	2770.06
418.436	2853.06
418.547	2844.06
418.657	2782.06
418.767	2911.06
418.877	2906.06
418.987	2889.06
419.098	2951.06
419.208	2923.06
419.318	3071.06
419.428	2939.06
419.538	2824.06
419.648	3069.06
419.759	2902.06
419.869	2951.06
419.979	2968.06
420.089	2984.06
420.199	2924.06
420.309	2944.06
420.419	2995.06
420.529	2915.06
420.639	3361.06
420.749	3115.06
420.859	3076.06
420.969	3049.06
421.079	3280.06
421.189	3032.06
421.299	3062.06
421.409	2995.06
421.519	3146.06
421.629	3141.06
421.739	3075.06
421.849	3063.06
421.959	3076.06
422.069	3167.06
422.179	3192.06
422.289	3165.06
422.399	3194.06
422.509	3370.06
422.619	5401.06
422.729	3434.06
422.838	3304.06
422.948	3339.06
423.058	3326.06
423.168	3331.06
423.278	3399.06
423.388	3473.06
423.498	3547.06
423.607	3533.06
423.717	3745.06
423.827	3768.06
423.937	3644.06
424.046	3579.06
424.156	3683.06
424.266	3642.06
424.376	3800.06
424.485	3804.06
424.595	3722.06
424.705	3613.06
424.815	3683.06
424.924	4076.06
425.034	3837.06
425.144	3750.06
425.253	3735.06
425.363	3877.06
425.473	3829.06
425.582	3768.06
425.692	3856.06
425.801	3795.06
425.911	4045.06
426.021	3940.06
426.13	3994.06
426.24	4104.06
426.349	4076.06
426.459	3997.06
426.568	3972.06
426.678	4121.06
426.787	4122.06
426.897	4097.06
427.006	4036.06
427.116	4254.06
427.225	4116.06
427.335	4170.06
427.444	4098.06
427.554	4233.06
427.663	4145.06
427.773	4220.06
427.882	4269.06
427.992	4212.06
428.101	4350.06
428.21	4294.06
428.32	4472.06
428.429	4333.06
428.539	4747.06
428.648	4530.06
428.757	4409.06
428.867	4600.06
428.976	4534.06
429.085	4517.06
429.195	4571.06
429.304	4503.06
429.413	4605.06
429.523	4657.06
429.632	4593.06
429.741	4615.06
429.85	4667.06
429.96	4711.06
430.069	4715.06
430.178	4770.06
430.287	5063.06
430.397	4660.06
430.506	4657.06
430.615	4827.06
430.724	4880.06
430.833	4833.06
430.943	4904.06
431.052	4889.06
431.161	4826.06
431.27	4959.06
431.379	4906.06
431.488	5176.06
431.597	5139.06
431.706	5213.06
431.816	5137.06
431.925	5245.06
432.034	5097.06
432.143	5157.06
432.252	5030.06
432.361	5139.06
432.47	5061.06
432.579	5050.06
432.688	5159.06
432.797	5154.06
432.906	5125.06
433.015	5225.06
433.124	5469.06
433.233	5274.06
433.342	5212.06
433.451	5279.06
433.56	5105.06
433.669	5212.06
433.778	5139.06
433.886	5391.06
433.995	5266.06
434.104	5466.06
434.213	5373.06
434.322	5325.06
434.431	5510.06
434.54	5722.06
434.649	5681.06
434.757	5706.06
434.866	5701.06
434.975	5624.06
435.084	5604.06
435.193	5538.06
435.301	5521.06
435.41	5556.06
435.519	5636.06
435.628	5094.06
435.737	4991.06
435.845	4861.06
435.954	4970.06
436.063	5005.06
436.171	4928.06
436.28	4953.06
436.389	5028.06
436.498	4807.06
436.606	4962.06
436.715	5000.06
436.823	4827.06
436.932	4714.06
437.041	4745.06
437.149	4681.06
437.258	4626.06
437.367	4632.06
437.475	4682.06
437.584	4795.06
437.692	4633.06
437.801	5875.06
437.91	4677.06
438.018	4598.06
438.127	4544.06
438.235	4601.06
438.344	4517.06
438.452	4561.06
438.561	4426.06
438.669	4455.06
438.778	4368.06
438.886	4440.06
438.995	4364.06
439.103	4536.06
439.212	4426.06
439.32	4482.06
439.428	4448.06
439.537	4451.06
439.645	4620.06
439.754	4602.06
439.862	4433.06
439.97	4506.06
440.079	4597.06
440.187	4496.06
440.295	4705.06
440.404	4564.06
440.512	4645.06
440.62	4673.06
440.729	4649.06
440.837	4819.06
440.945	5218.06
441.054	4774.06
441.162	4808.06
441.27	4918.06
441.378	4963.06
441.487	4993.06
441.595	5264.06
441.703	5077.06
441.811	4917.06
441.92	4897.06
442.028	4635.06
442.136	4836.06
442.244	4906.06
442.352	4831.06
442.461	4705.06
442.569	4712.06
442.677	4808.06
442.785	4811.06
442.893	4621.06
443.001	4699.06
443.109	4675.06
443.217	4753.06
443.325	4761.06
443.434	5172.06
443.542	5090.06
443.65	4872.06
443.758	4989.06
443.866	4881.06
443.974	5263.06
444.082	5042.06
444.19	5166.06
444.298	5268.06
444.406	5395.06
444.514	5333.06
444.622	5416.06
444.73	5544.06
444.838	5440.06
444.946	5426.06
445.054	5104.06
445.161	5164.06
445.269	5026.06
445.377	4973.06
445.485	4940.06
445.593	4943.06
445.701	5011.06
445.809	4925.06
445.917	4879.06
446.025	4843.06
446.132	5058.06
446.24	4916.06
446.348	4768.06
446.456	4828.06
446.564	4817.06
446.671	4889.06
446.779	4836.06
446.887	4805.06
446.995	4753.06
447.102	4936.06
447.21	4816.06
447.318	4752.06
447.426	4681.06
447.533	5054.06
447.641	5816.06
447.749	4850.06
447.856	4867.06
447.964	4777.06
448.072	4919.06
448.179	4818.06
448.287	4787.06
448.395	4870.06
448.502	4768.06
448.61	4803.06
448.718	4824.06
448.825	4897.06
448.933	4838.06
449.04	4960.06
449.148	4908.06
449.256	5037.06
449.363	4938.06
449.471	5012.06
449.578	5146.06
449.686	4964.06
449.793	5183.06
449.901	5088.06
450.008	5049.06
450.116	5152.06
450.223	5159.06
450.331	5318.06
450.438	5341.06
450.546	5373.06
450.653	5391.06
450.76	5491.06
450.868	5514.06
450.975	5663.06
451.083	5480.06
451.19	5619.06
451.297	5561.06
451.405	5521.06
451.512	5515.06
451.619	5668.06
451.727	5812.06
451.834	5593.06
451.941	5725.06
452.049	5711.06
452.156	5658.06
452.263	5827.06
452.371	5813.06
452.478	5779.06
452.585	5959.06
452.692	5795.06
452.8	5863.06
452.907	6026.06
453.014	5961.06
453.121	5901.06
453.229	5989.06
453.336	6081.06
453.443	6039.06
453.55	5937.06
453.657	5961.06
453.765	6231.06
453.872	5955.06
453.979	6142.06
454.086	6266.06
454.193	6224.06
454.3	6006.06
454.407	6250.06
454.514	6292.06
454.621	6143.06
454.729	6233.06
454.836	6349.06
454.943	6345.06
455.05	6360.06
455.157	6532.06
455.264	6232.06
455.371	6388.06
455.478	6555.06
455.585	7664.06
455.692	6652.06
455.799	6696.06
455.906	6504.06
456.013	6430.06
456.12	6545.06
456.227	6628.06
456.334	6657.06
456.44	6898.06
456.547	6825.06
456.654	6666.06
456.761	6753.06
456.868	6887.06
456.975	6888.06
457.082	6745.06
457.189	6740.06
457.296	6812.06
457.402	6917.06
457.509	6811.06
457.616	7048.06
457.723	7141.06
457.83	7030.06
457.936	7194.06
458.043	7441.06
458.15	7154.06
458.257	7365.06
458.363	7439.06
458.47	7494.06
458.577	7631.06
458.684	7704.06
458.79	7870.06
458.897	7894.06
459.004	8148.06
459.11	8057.06
459.217	8130.06
459.324	8187.06
459.43	8344.06
459.537	8693.06
459.644	8656.06
459.75	8629.06
459.857	8831.06
459.964	8823.06
460.07	8725.06
460.177	8937.06
460.283	8870.06
460.39	9073.06
460.496	8896.06
460.603	8896.06
460.71	8872.06
460.816	8864.06
460.923	8706.06
461.029	8968.06
461.136	8913.06
461.242	8883.06
461.349	8890.06
461.455	9063.06
461.562	9122.06
461.668	9185.06
461.774	9097.06
461.881	9072.06
461.987	9115.06
462.094	9318.06
462.2	9457.06
462.307	9437.06
462.413	9521.06
462.519	9688.06
462.626	10208.06
462.732	10120.06
462.838	10287.06
462.945	10621.06
463.051	10633.06
463.157	10562.06
463.264	10211.06
463.37	10161.06
463.476	9865.06
463.583	9764.06
463.689	9658.06
463.795	9784.06
463.901	9716.06
464.008	9918.06
464.114	9825.06
464.22	9687.06
464.326	9728.06
464.433	9412.06
464.539	9439.06
464.645	9243.06
464.751	9267.06
464.857	8896.06
464.963	8498.06
465.07	8497.06
465.176	8228.06
465.282	7973.06
465.388	7924.06
465.494	7740.06
465.6	7547.06
465.706	7330.06
465.812	7349.06
465.918	7376.06
466.024	7181.06
466.131	7241.06
466.237	6922.06
466.343	6787.06
466.449	6874.06
466.555	6734.06
466.661	6513.06
466.767	6641.06
466.873	6589.06
466.979	6673.06
467.085	6488.06
467.191	6549.06
467.296	6334.06
467.402	6321.06
467.508	6497.06
467.614	6375.06
467.72	6203.06
467.826	6149.06
467.932	6072.06
468.038	6068.06
468.144	6034.06
468.25	5924.06
468.355	5916.06
468.461	5981.06
468.567	5968.06
468.673	5888.06
468.779	5845.06
468.885	5903.06
468.99	5803.06
469.096	5926.06
469.202	5923.06
469.308	5909.06
469.413	5925.06
469.519	5918.06
469.625	5901.06
469.731	5912.06
469.836	5855.06
469.942	6176.06
470.048	5971.06
470.153	5973.06
470.259	6028.06
470.365	6039.06
470.47	6133.06
470.576	5991.06
470.682	5940.06
470.787	5880.06
470.893	5702.06
470.999	5810.06
471.104	5746.06
471.21	5466.06
471.315	5500.06
471.421	5384.06
471.527	5645.06
471.632	5599.06
471.738	5431.06
471.843	5353.06
471.949	5322.06
472.054	5329.06
472.16	5149.06
472.265	5218.06
472.371	5183.06
472.476	5109.06
472.582	5206.06
472.687	5100.06
472.793	4950.06
472.898	5005.06
473.003	5044.06
473.109	5025.06
473.214	4976.06
473.32	4998.06
473.425	5003.06
473.53	5018.06
473.636	4909.06
473.741	4958.06
473.847	4904.06
473.952	4934.06
474.057	4900.06
474.163	5035.06
474.268	4927.06
474.373	4950.06
474.478	4919.06
474.584	4821.06
474.689	4973.06
474.794	4853.06
474.9	5085.06
475.005	4939.06
475.11	5089.06
475.215	4844.06
475.321	4917.06
475.426	5159.06
475.531	5062.06
475.636	4889.06
475.741	4877.06
475.846	4945.06
475.952	5122.06
476.057	5036.06
476.162	5019.06
476.267	5121.06
476.372	5216.06
476.477	5004.06
476.582	5153.06
476.687	5037.06
476.793	5193.06
476.898	5138.06
477.003	5117.06
477.108	5213.06
477.213	5126.06
477.318	5220.06
477.423	5443.06
477.528	5444.06
477.633	5380.06
477.738	5537.06
477.843	5535.06
477.948	5530.06
478.053	5547.06
478.158	5563.06
478.263	5594.06
478.368	5672.06
478.473	5951.06
478.578	5740.06
478.682	5686.06
478.787	5905.06
478.892	5686.06
478.997	5746.06
479.102	5711.06
479.207	5719.06
479.312	5951.06
479.417	5883.06
479.521	5874.06
479.626	5919.06
479.731	5975.06
479.836	5935.06
479.941	6187.06
480.045	6047.06
480.15	6193.06
480.255	6185.06
480.36	6183.06
480.465	6313.06
480.569	6357.06
480.674	6118.06
480.779	6101.06
480.883	6118.06
480.988	6102.06
481.093	6116.06
481.197	6063.06
481.302	6115.06
481.407	6066.06
481.511	7614.06
481.616	6141.06
481.721	6103.06
481.825	6211.06
481.93	5978.06
482.035	6080.06
482.139	6153.06
482.244	6103.06
482.348	6150.06
482.453	6105.06
482.557	6236.06
482.662	6196.06
482.767	6193.06
482.871	6269.06
482.976	6308.06
483.08	6301.06
483.185	6643.06
483.289	6354.06
483.394	6466.06
483.498	6531.06
483.603	6572.06
483.707	6604.06
483.811	6694.06
483.916	6682.06
484.02	6710.06
484.125	6837.06
484.229	6873.06
484.333	6935.06
484.438	6918.06
484.542	6969.06
484.647	6936.06
484.751	7034.06
484.855	7159.06
484.96	7014.06
485.064	7147.06
485.168	7191.06
485.273	7249.06
485.377	7261.06
485.481	7506.06
485.585	7371.06
485.69	7320.06
485.794	7347.06
485.898	7401.06
486.002	7400.06
486.107	7554.06
486.211	7478.06
486.315	7454.06
486.419	7396.06
486.524	7582.06
486.628	7614.06
486.732	7525.06
486.836	7608.06
486.94	7668.06
487.044	7553.06
487.148	7559.06
487.253	7576.06
487.357	7556.06
487.461	7641.06
487.565	7682.06
487.669	7680.06
487.773	7435.06
487.877	7675.06
487.981	7660.06
488.085	7576.06
488.189	7689.06
488.293	7872.06
488.397	7959.06
488.501	7732.06
488.605	7772.06
488.709	7703.06
488.813	7522.06
488.917	7604.06
489.021	7541.06
489.125	7862.06
489.229	7559.06
489.333	7802.06
489.437	7735.06
489.541	7772.06
489.645	7576.06
489.749	7748.06
489.853	7831.06
489.956	7786.06
490.06	7796.06
490.164	7785.06
490.268	7718.06
490.372	7711.06
490.476	7796.06
490.579	7731.06
490.683	8404.06
490.787	7820.06
490.891	7748.06
490.995	7694.06
491.098	7716.06
491.202	7691.06
491.306	7805.06
491.41	7646.06
491.513	7650.06
491.617	7752.06
491.721	7953.06
491.824	8064.06
491.928	7930.06
492.032	8099.06
492.136	7828.06
492.239	7773.06
492.343	7921.06
492.446	8267.06
492.55	7776.06
492.654	7673.06
492.757	7734.06
492.861	7883.06
492.965	7818.06
493.068	7797.06
493.172	7658.06
493.275	7881.06
493.379	7771.06
493.482	7835.06
493.586	7988.06
493.689	8055.06
493.793	7865.06
493.896	7991.06
494	7895.06
494.103	7930.06
494.207	8169.06
494.31	8107.06
494.414	7932.06
494.517	7863.06
494.621	7760.06
494.724	7640.06
494.828	7695.06
494.931	7670.06
495.034	7717.06
495.138	7830.06
495.241	7712.06
495.345	8255.06
495.448	7859.06
495.551	7667.06
495.655	7688.06
495.758	7654.06
495.861	7527.06
495.965	7675.06
496.068	7714.06
496.171	7780.06
496.274	7604.06
496.378	7684.06
496.481	7652.06
496.584	7844.06
496.687	7803.06
496.791	7938.06
496.894	7851.06
496.997	7847.06
497.1	7846.06
497.204	7998.06
497.307	7918.06
497.41	8119.06
497.513	8195.06
497.616	8248.06
497.719	8236.06
497.823	8313.06
497.926	8334.06
498.029	8521.06
498.132	8565.06
498.235	8732.06
498.338	8823.06
498.441	9001.06
498.544	9084.06
498.647	9381.06
498.75	9601.06
498.853	10030.06
498.956	10098.06
499.059	10396.06
499.163	10694.06
499.266	10945.06
499.369	11316.06
499.471	11634.06
499.574	12162.06
499.677	12444.06
499.78	12952.06
499.883	13448.06
499.986	14128.06
500.089	14351.06
500.192	14510.06
500.295	14510.06
500.398	14510.06
500.501	14424.06
500.604	14218.06
500.707	13601.06
500.809	13198.06
500.912	12883.06
501.015	12567.06
501.118	11868.06
501.221	11485.06
501.324	10981.06
501.426	10538.06
501.529	10135.06
501.632	9846.06
501.735	9472.06
501.837	9258.06
501.94	9012.06
502.043	8832.06
502.146	8537.06
502.248	8498.06
502.351	8235.06
502.454	8085.06
502.557	7927.06
502.659	7861.06
502.762	7552.06
502.865	7554.06
502.967	7408.06
503.07	7307.06
503.173	7220.06
503.275	7096.06
503.378	7049.06
503.48	6938.06
503.583	6988.06
503.686	6860.06
503.788	7176.06
503.891	6900.06
503.993	7088.06
504.096	6783.06
504.198	6957.06
504.301	6742.06
504.403	6677.06
504.506	6786.06
504.608	6693.06
504.711	6557.06
504.813	6493.06
504.916	6342.06
505.018	6134.06
505.121	6068.06
505.223	6101.06
505.326	5991.06
505.428	5975.06
505.531	5805.06
505.633	5907.06
505.735	5632.06
505.838	5680.06
505.94	5626.06
506.042	5628.06
506.145	5557.06
506.247	5579.06
506.35	5466.06
506.452	5506.06
506.554	5425.06
506.656	5492.06
506.759	5377.06
506.861	5386.06
506.963	5373.06
507.066	5383.06
507.168	5463.06
507.27	5389.06
507.372	5197.06
507.475	5176.06
507.577	5325.06
507.679	5257.06
507.781	5115.06
507.883	5119.06
507.986	5161.06
508.088	5119.06
508.19	5221.06
508.292	5129.06
508.394	5037.06
508.496	5012.06
508.598	5107.06
508.701	5039.06
508.803	5095.06
508.905	4980.06
509.007	4930.06
509.109	5049.06
509.211	4895.06
509.313	4923.06
509.415	4909.06
509.517	5022.06
509.619	4992.06
509.721	4906.06
509.823	4913.06
509.925	5072.06
510.027	4831.06
510.129	4875.06
510.231	4955.06
510.333	4746.06
510.435	4809.06
510.537	4860.06
510.639	4887.06
510.741	4914.06
510.843	4982.06
510.945	4893.06
511.047	4971.06
511.148	4938.06
511.25	4986.06
511.352	4956.06
511.454	4819.06
511.556	5022.06
511.658	4896.06
511.76	5017.06
511.861	5171.06
511.963	4763.06
512.065	4848.06
512.167	4891.06
512.268	5157.06
512.37	4956.06
512.472	4876.06
512.574	5034.06
512.676	4951.06
512.777	4885.06
512.879	4905.06
512.981	4816.06
513.082	4950.06
513.184	5002.06
513.286	5407.06
513.387	5050.06
513.489	5123.06
513.591	5033.06
513.692	5011.06
513.794	5096.06
513.896	4992.06
513.997	4901.06
514.099	4988.06
514.2	5159.06
514.302	5079.06
514.404	5144.06
514.505	5116.06
514.607	5201.06
514.708	5197.06
514.81	5167.06
514.911	5231.06
515.013	5271.06
515.114	5296.06
515.216	5225.06
515.317	5439.06
515.419	5317.06
515.52	5497.06
515.622	5366.06
515.723	5423.06
515.825	5605.06
515.926	5508.06
516.027	5605.06
516.129	5716.06
516.23	5745.06
516.332	5829.06
516.433	5799.06
516.534	5936.06
516.636	5965.06
516.737	5954.06
516.838	6991.06
516.94	6377.06
517.041	6504.06
517.142	6625.06
517.244	6646.06
517.345	6668.06
517.446	6853.06
517.547	6796.06
517.649	6845.06
517.75	6787.06
517.851	6774.06
517.952	6815.06
518.054	6616.06
518.155	6823.06
518.256	6500.06
518.357	6589.06
518.458	6372.06
518.56	6335.06
518.661	6305.06
518.762	6353.06
518.863	6229.06
518.964	6182.06
519.065	6089.06
519.166	5980.06
519.268	5866.06
519.369	6166.06
519.47	5977.06
519.571	5906.06
519.672	5738.06
519.773	5849.06
519.874	5884.06
519.975	5861.06
520.076	5743.06
520.177	5760.06
520.278	5735.06
520.379	5839.06
520.48	5703.06
520.581	5717.06
520.682	5568.06
520.783	5769.06
520.884	5794.06
520.985	5612.06
521.086	5611.06
521.187	5595.06
521.288	5614.06
521.389	5686.06
521.489	5594.06
521.59	5553.06
521.691	5640.06
521.792	5589.06
521.893	5740.06
521.994	5635.06
522.095	5647.06
522.195	5641.06
522.296	5559.06
522.397	5758.06
522.498	5627.06
522.599	5600.06
522.699	5684.06
522.8	5603.06
522.901	5717.06
523.002	5697.06
523.102	5781.06
523.203	5692.06
523.304	5791.06
523.405	5561.06
523.505	5623.06
523.606	5638.06
523.707	5651.06
523.807	5653.06
523.908	5647.06
524.009	5785.06
524.109	5702.06
524.21	5713.06
524.31	5722.06
524.411	5666.06
524.512	5777.06
524.612	5770.06
524.713	5816.06
524.813	5704.06
524.914	5911.06
525.014	10451.06
525.115	6040.06
525.216	5666.06
525.316	5767.06
525.417	5714.06
525.517	5644.06
525.618	5659.06
525.718	5571.06
525.819	5581.06
525.919	5658.06
526.019	5659.06
526.12	5575.06
526.22	5642.06
526.321	5544.06
526.421	5529.06
526.522	5560.06
526.622	5567.06
526.722	5501.06
526.823	5590.06
526.923	5558.06
527.023	5642.06
527.124	5494.06
527.224	5622.06
527.324	5464.06
527.425	5559.06
527.525	5561.06
527.625	5483.06
527.726	5519.06
527.826	5630.06
527.926	5619.06
528.026	5679.06
528.127	5607.06
528.227	5640.06
528.327	5636.06
528.427	5527.06
528.528	5711.06
528.628	5764.06
528.728	5601.06
528.828	5671.06
528.928	5649.06
529.029	5492.06
529.129	5622.06
529.229	5607.06
529.329	5554.06
529.429	5568.06
529.529	5656.06
529.629	5536.06
529.729	5565.06
529.829	5571.06
529.93	5434.06
530.03	5544.06
530.13	5405.06
530.23	5445.06
530.33	5491.06
530.43	5404.06
530.53	5550.06
530.63	5482.06
530.73	5308.06
530.83	5370.06
530.93	5299.06
531.03	5278.06
531.13	5501.06
531.23	5254.06
531.33	5313.06
531.429	5435.06
531.529	5380.06
531.629	5277.06
531.729	5321.06
531.829	5376.06
531.929	5237.06
532.029	5351.06
532.129	5184.06
532.229	5302.06
532.328	5277.06
532.428	5196.06
532.528	5089.06
532.628	5076.06
532.728	5227.06
532.827	5136.06
532.927	5198.06
533.027	5136.06
533.127	5264.06
533.227	5190.06
533.326	5077.06
533.426	5145.06
533.526	5134.06
533.625	5200.06
533.725	5289.06
533.825	5127.06
533.924	4976.06
534.024	4866.06
534.124	4901.06
534.223	4928.06
534.323	5203.06
534.423	4972.06
534.522	4895.06
534.622	4824.06
534.722	4955.06
534.821	4859.06
534.921	4805.06
535.02	4842.06
535.12	4869.06
535.219	4866.06
535.319	4885.06
535.419	4850.06
535.518	4635.06
535.618	4697.06
535.717	4794.06
535.817	4612.06
535.916	4578.06
536.016	4664.06
536.115	4549.06
536.215	4539.06
536.314	4535.06
536.413	4341.06
536.513	4469.06
536.612	4473.06
536.712	4368.06
536.811	4364.06
536.91	4409.06
537.01	4312.06
537.109	4281.06
537.209	4301.06
537.308	4286.06
537.407	4323.06
537.507	4375.06
537.606	4388.06
537.705	4389.06
537.805	4203.06
537.904	4240.06
538.003	4301.06
538.102	4476.06
538.202	4276.06
538.301	4381.06
538.4	4349.06
538.499	4240.06
538.599	4368.06
538.698	4452.06
538.797	4252.06
538.896	4355.06
538.995	4266.06
539.095	4287.06
539.194	4462.06
539.293	4188.06
539.392	4213.06
539.491	4209.06
539.59	4086.06
539.689	4133.06
539.789	4081.06
539.888	3964.06
539.987	3917.06
540.086	4016.06
540.185	4025.06
540.284	4124.06
540.383	3990.06
540.482	4044.06
540.581	4106.06
540.68	4005.06
540.779	4087.06
540.878	4097.06
540.977	4107.06
541.076	4096.06
541.175	4071.06
541.274	4221.06
541.373	4169.06
541.472	4127.06
541.571	3944.06
541.67	5059.06
541.769	4174.06
541.868	4018.06
541.966	4091.06
542.065	3996.06
542.164	3954.06
542.263	3874.06
542.362	4005.06
542.461	3942.06
542.56	3963.06
542.658	3955.06
542.757	3972.06
542.856	3815.06
542.955	3885.06
543.054	3845.06
543.152	3912.06
543.251	3802.06
543.35	3944.06
543.449	3767.06
543.547	3830.06
543.646	3793.06
543.745	3901.06
543.843	3900.06
543.942	3922.06
544.041	3835.06
544.14	3967.06
544.238	3918.06
544.337	4048.06
544.436	3941.06
544.534	4054.06
544.633	4011.06
544.731	3889.06
544.83	3869.06
544.929	3911.06
545.027	3894.06
545.126	3905.06
545.224	3916.06
545.323	3935.06
545.421	3943.06
545.52	3957.06
545.619	3916.06
545.717	3871.06
545.816	3910.06
545.914	3939.06
546.013	4059.06
546.111	4027.06
546.209	3935.06
546.308	3904.06
546.406	3825.06
546.505	4017.06
546.603	3946.06
546.702	3802.06
546.8	3892.06
546.899	3869.06
546.997	3920.06
547.095	3851.06
547.194	3905.06
547.292	3993.06
547.39	3942.06
547.489	3896.06
547.587	4096.06
547.685	3787.06
547.784	4123.06
547.882	3939.06
547.98	3808.06
548.079	3931.06
548.177	3939.06
548.275	3761.06
548.373	4055.06
548.472	3868.06
548.57	3913.06
548.668	3972.06
548.766	3941.06
548.864	3855.06
548.963	3801.06
549.061	4031.06
549.159	3858.06
549.257	3915.06
549.355	3921.06
549.454	3917.06
549.552	3873.06
549.65	3940.06
549.748	3890.06
549.846	3821.06
549.944	3891.06
550.042	3822.06
550.14	3909.06
550.238	3866.06
550.336	3837.06
550.434	3749.06
550.532	3801.06
550.631	3926.06
550.729	3820.06
550.827	3802.06
550.925	3810.06
551.023	3800.06
551.121	3696.06
551.218	3776.06
551.316	3710.06
551.414	3648.06
551.512	3647.06
551.61	3869.06
551.708	3768.06
551.806	3765.06
551.904	3767.06
552.002	3842.06
552.1	3829.06
552.198	3852.06
552.296	4046.06
552.393	4028.06
552.491	4151.06
552.589	4172.06
552.687	4118.06
552.785	4099.06
552.882	4177.06
552.98	4314.06
553.078	4170.06
553.176	4288.06
553.274	4113.06
553.371	4172.06
553.469	4112.06
553.567	4148.06
553.665	4024.06
553.762	4465.06
553.86	4169.06
553.958	3981.06
554.055	3975.06
554.153	4153.06
554.251	3956.06
554.348	3862.06
554.446	3771.06
554.544	3828.06
554.641	4074.06
554.739	3757.06
554.837	3858.06
554.934	3807.06
555.032	3745.06
555.129	3716.06
555.227	4031.06
555.324	8215.06
555.422	4100.06
555.519	3714.06
555.617	3634.06
555.715	3540.06
555.812	5050.06
555.91	3697.06
556.007	3641.06
556.105	3588.06
556.202	3523.06
556.299	3523.06
556.397	3643.06
556.494	3495.06
556.592	3549.06
556.689	3642.06
556.787	3517.06
556.884	3524.06
556.981	3557.06
557.079	3508.06
557.176	3520.06
557.273	3498.06
557.371	3569.06
557.468	3505.06
557.566	3586.06
557.663	3574.06
557.76	3574.06
557.857	3533.06
557.955	3590.06
558.052	3562.06
558.149	3582.06
558.247	3659.06
558.344	3560.06
558.441	3479.06
558.538	3545.06
558.636	3535.06
558.733	3551.06
558.83	3550.06
558.927	3553.06
559.024	3508.06
559.122	3433.06
559.219	3619.06
559.316	3575.06
559.413	3597.06
559.51	3574.06
559.607	3541.06
559.704	3577.06
559.801	3669.06
559.899	3481.06
559.996	3716.06
560.093	3618.06
560.19	3524.06
560.287	3568.06
560.384	3605.06
560.481	3603.06
560.578	3508.06
560.675	3529.06
560.772	3691.06
560.869	3533.06
560.966	3654.06
561.063	3637.06
561.16	3657.06
561.257	3545.06
561.354	3672.06
561.451	3559.06
561.548	3581.06
561.645	3776.06
561.742	3724.06
561.838	3562.06
561.935	3534.06
562.032	3663.06
562.129	3556.06
562.226	3498.06
562.323	3681.06
562.42	3703.06
562.516	3602.06
562.613	3619.06
562.71	3620.06
562.807	4284.06
562.904	3673.06
563	3683.06
563.097	3610.06
563.194	3693.06
563.291	3654.06
563.387	3671.06
563.484	3685.06
563.581	3671.06
563.678	3687.06
563.774	4050.06
563.871	3816.06
563.968	3814.06
564.064	3793.06
564.161	3775.06
564.258	3842.06
564.354	3853.06
564.451	3865.06
564.548	3884.06
564.644	3899.06
564.741	4038.06
564.837	4058.06
564.934	3987.06
565.031	4075.06
565.127	4075.06
565.224	4213.06
565.32	4329.06
565.417	4193.06
565.513	4297.06
565.61	4430.06
565.706	4508.06
565.803	4520.06
565.899	4615.06
565.996	4728.06
566.092	4774.06
566.189	4825.06
566.285	4994.06
566.382	5168.06
566.478	5361.06
566.574	5377.06
566.671	5306.06
566.767	5341.06
566.864	5313.06
566.96	5490.06
567.056	5439.06
567.153	5654.06
567.249	5653.06
567.345	5848.06
567.442	5737.06
567.538	5938.06
567.634	6071.06
567.731	6034.06
567.827	5987.06
567.923	5983.06
568.019	5684.06
568.116	5494.06
568.212	5251.06
568.308	5307.06
568.404	5115.06
568.501	4878.06
568.597	4899.06
568.693	4616.06
568.789	5027.06
568.885	4444.06
568.982	4340.06
569.078	4166.06
569.174	4206.06
569.27	3986.06
569.366	3991.06
569.462	3998.06
569.558	3942.06
569.655	3961.06
569.751	3807.06
569.847	3816.06
569.943	3746.06
570.039	3676.06
570.135	4185.06
570.231	3655.06
570.327	3862.06
570.423	3841.06
570.519	3724.06
570.615	3652.06
570.711	3826.06
570.807	3849.06
570.903	3674.06
570.999	3775.06
571.095	3709.06
571.191	3629.06
571.287	3564.06
571.383	3626.06
571.479	3425.06
571.574	3517.06
571.67	3424.06
571.766	3569.06
571.862	3324.06
571.958	3337.06
572.054	3326.06
572.15	3217.06
572.246	3213.06
572.341	3297.06
572.437	3147.06
572.533	3169.06
572.629	3253.06
572.725	3076.06
572.82	3070.06
572.916	3219.06
573.012	3064.06
573.108	3121.06
573.203	3061.06
573.299	3002.06
573.395	2897.06
573.49	2926.06
573.586	2915.06
573.682	2892.06
573.778	3072.06
573.873	3031.06
573.969	2915.06
574.065	2900.06
574.16	3035.06
574.256	2954.06
574.351	3010.06
574.447	2982.06
574.543	2965.06
574.638	2984.06
574.734	2918.06
574.829	3139.06
574.925	2822.06
575.02	2812.06
575.116	2902.06
575.212	2819.06
575.307	2915.06
575.403	2842.06
575.498	2816.06
575.594	2760.06
575.689	2886.06
575.784	2769.06
575.88	2809.06
575.975	2748.06
576.071	2723.06
576.166	2623.06
576.262	2786.06
576.357	2812.06
576.452	2832.06
576.548	2751.06
576.643	2691.06
576.739	2651.06
576.834	2609.06
576.929	2657.06
577.025	2824.06
577.12	2601.06
577.215	2544.06
577.311	2613.06
577.406	2625.06
577.501	2645.06
577.597	2545.06
577.692	2632.06
577.787	2634.06
577.882	2594.06
577.978	2512.06
578.073	2462.06
578.168	2502.06
578.263	2441.06
578.358	2417.06
578.454	2451.06
578.549	2408.06
578.644	2393.06
578.739	2482.06
578.834	2383.06
578.929	2346.06
579.025	2360.06
579.12	2498.06
579.215	2531.06
579.31	2463.06
579.405	2344.06
579.5	2429.06
579.595	2279.06
579.69	2292.06
579.785	2262.06
579.88	2248.06
579.975	2292.06
580.07	2301.06
580.165	2224.06
580.26	2326.06
580.355	2311.06
580.45	2347.06
580.545	2195.06
580.64	2273.06
580.735	2219.06
580.83	2243.06
580.925	2199.06
581.02	2108.06
581.115	2049.06
581.21	2161.06
581.305	2211.06
581.4	2137.06
581.495	2176.06
581.589	2182.06
581.684	2047.06
581.779	2137.06
581.874	2224.06
581.969	2169.06
582.064	2044.06
582.158	2111.06
582.253	2079.06
582.348	2080.06
582.443	2102.06
582.537	2081.06
582.632	2255.06
582.727	2080.06
582.822	2044.06
582.916	2000.06
583.011	2016.06
583.106	2043.06
583.201	1938.06
583.295	2016.06
583.39	2002.06
583.485	1999.06
583.579	3514.06
583.674	2116.06
583.769	2110.06
583.863	1933.06
583.958	1990.06
584.052	1915.06
584.147	1925.06
584.242	1847.06
584.336	1990.06
584.431	2038.06
584.525	1872.06
584.62	2032.06
584.714	1865.06
584.809	1888.06
584.903	1925.06
584.998	1925.06
585.092	1787.06
585.187	1899.06
585.281	1843.06
585.376	1805.06
585.47	1888.06
585.565	1904.06
585.659	1773.06
585.754	1793.06
585.848	1851.06
585.942	1768.06
586.037	1729.06
586.131	3761.06
586.226	1985.06
586.32	1889.06
586.414	1714.06
586.509	1860.06
586.603	1787.06
586.697	1721.06
586.792	1760.06
586.886	1694.06
586.98	1826.06
587.075	1873.06
587.169	1703.06
587.263	1856.06
587.357	1857.06
587.452	1664.06
587.546	1750.06
587.64	1668.06
587.734	1737.06
587.829	1710.06
587.923	1644.06
588.017	1715.06
588.111	1700.06
588.205	1693.06
588.3	1692.06
588.394	1548.06
588.488	1633.06
588.582	1685.06
588.676	1669.06
588.77	1625.06
588.864	1776.06
588.958	1749.06
589.052	1630.06
589.147	1730.06
589.241	1721.06
589.335	1672.06
589.429	1709.06
589.523	1706.06
589.617	1619.06
589.711	1703.06
589.805	1732.06
589.899	1753.06
589.993	1624.06
590.087	1646.06
590.181	1594.06
590.275	1648.06
590.369	1607.06
590.462	1638.06
590.556	1596.06
590.65	1557.06
590.744	1651.06
590.838	1600.06
590.932	1611.06
591.026	1722.06
591.12	1730.06
591.214	1661.06
591.307	1676.06
591.401	1675.06
591.495	1700.06
591.589	1592.06
591.683	1757.06
591.777	1705.06
591.87	2028.06
591.964	1762.06
592.058	1673.06
592.152	1751.06
592.245	1762.06
592.339	1803.06
592.433	1862.06
592.527	1799.06
592.62	1721.06
592.714	1794.06
592.808	1860.06
592.901	1796.06
592.995	1760.06
593.089	2085.06
593.182	1943.06
593.276	1812.06
593.37	1767.06
593.463	1826.06
593.557	1770.06
593.65	1786.06
593.744	1845.06
593.837	1863.06
593.931	1829.06
594.025	3964.06
594.118	2011.06
594.212	1813.06
594.305	1797.06
594.399	1847.06
594.492	1980.06
594.586	1742.06
594.679	1745.06
594.773	1716.06
594.866	1687.06
594.96	1694.06
595.053	1617.06
595.146	1611.06
595.24	1656.06
595.333	1540.06
595.427	1492.06
595.52	1520.06
595.614	1703.06
595.707	1540.06
595.8	1427.06
595.894	1532.06
595.987	1468.06
596.08	1440.06
596.174	1835.06
596.267	1513.06
596.36	1502.06
596.454	1612.06
596.547	1495.06
596.64	1391.06
596.733	1348.06
596.827	1484.06
596.92	1434.06
597.013	1346.06
597.106	1388.06
597.2	1317.06
597.293	1314.06
597.386	1611.06
597.479	1410.06
597.572	1368.06
597.666	1297.06
597.759	1285.06
597.852	1366.06
597.945	1273.06
598.038	1257.06
598.131	1279.06
598.224	1260.06
598.317	1369.06
598.411	1308.06
598.504	1242.06
598.597	1370.06
598.69	1251.06
598.783	1257.06
598.876	1341.06
598.969	1289.06
599.062	1244.06
599.155	1374.06
599.248	1213.06
599.341	1265.06
599.434	1276.06
599.527	1282.06
599.62	1266.06
599.713	1202.06
599.806	1322.06
599.899	1401.06
599.991	1219.06
600.084	1444.06
600.177	1212.06
600.27	1177.06
600.363	1424.06
600.456	1214.06
600.549	1250.06
600.642	1145.06
600.734	1189.06
600.827	1196.06
600.92	1297.06
601.013	1250.06
601.106	1273.06
601.199	1217.06
601.291	1268.06
601.384	1248.06
601.477	1382.06
601.57	1361.06
601.662	1233.06
601.755	1243.06
601.848	1246.06
601.94	1193.06
602.033	1315.06
602.126	1228.06
602.219	1207.06
602.311	1269.06
602.404	1216.06
602.497	1245.06
602.589	1154.06
602.682	1216.06
602.774	1283.06
602.867	1164.06
602.96	1146.06
603.052	1260.06
603.145	1157.06
603.237	1171.06
603.33	1190.06
603.422	1299.06
603.515	1154.06
603.608	1156.06
603.7	1245.06
603.793	1203.06
603.885	1168.06
603.978	1236.06
604.07	1068.06
604.163	1141.06
604.255	1234.06
604.347	1125.06
604.44	1053.06
604.532	1213.06
604.625	1217.06
604.717	1079.06
604.81	1193.06
604.902	1161.06
604.994	1093.06
605.087	1136.06
605.179	1218.06
605.271	1139.06
605.364	1154.06
605.456	1248.06
605.548	1135.06
605.641	1099.06
605.733	1149.06
605.825	1206.06
605.918	1087.06
606.01	1254.06
606.102	1591.06
606.194	1200.06
606.287	1223.06
606.379	1171.06
606.471	1145.06
606.563	1203.06
606.655	1224.06
606.748	1158.06
606.84	1091.06
606.932	1218.06
607.024	1126.06
607.116	1100.06
607.208	1149.06
607.301	1173.06
607.393	1103.06
607.485	1107.06
607.577	1163.06
607.669	1218.06
607.761	1193.06
607.853	1376.06
607.945	1083.06
608.037	1062.06
608.129	1154.06
608.221	1099.06
608.313	1024.06
608.405	1170.06
608.497	1165.06
608.589	1042.06
608.681	1109.06
608.773	1220.06
608.865	1143.06
608.957	1095.06
609.049	1117.06
609.141	1133.06
609.233	1067.06
609.325	1095.06
609.417	1058.06
609.509	1129.06
609.601	1219.06
609.693	1194.06
609.784	1085.06
609.876	1038.06
609.968	1157.06
610.06	2948.06
610.152	1266.06
610.244	1837.06
610.335	1093.06
610.427	1088.06
610.519	1097.06
610.611	1027.06
610.702	1025.06
610.794	1066.06
610.886	1133.06
610.978	1049.06
611.069	1420.06
611.161	1074.06
611.253	1060.06
611.344	981.06
611.436	973.06
611.528	996.06
611.62	890.06
611.711	951.06
611.803	910.06
611.894	889.06
611.986	919.06
612.078	928.06
612.169	882.06
612.261	895.06
612.352	895.06
612.444	795.06
612.536	905.06
612.627	897.06
612.719	760.06
612.81	735.06
612.902	810.06
612.993	757.06
613.085	756.06
613.176	703.06
613.268	758.06
613.359	717.06
613.451	696.06
613.542	759.06
613.634	692.06
613.725	705.06
613.816	776.06
613.908	679.06
613.999	617.06
614.091	590.06
614.182	532.06
614.273	605.06
614.365	641.06
614.456	541.06
614.547	505.06
614.639	522.06
614.73	552.06
614.821	553.06
614.913	467.06
615.004	499.06
615.095	476.06
615.187	396.06
