Data from sinsal_HRC06701__34__95.txt Node

Date: Thu Apr 18 01:41:37 CDT 2024
User: Estudiantes 2
Spectrometer: HR+C0670
Trigger mode: 4
Integration Time (sec): 1.000000E0
Scans to average: 1
Electric dark correction enabled: true
Nonlinearity correction enabled: false
Boxcar width: 0
XAxis mode: Wavelengths
Number of Pixels in Spectrum: 2048
>>>>>Begin Spectral Data<<<<<
407.81	-123.88
407.921	-123.88
408.032	-123.88
408.143	-88.88
408.254	-91.88
408.365	-24.88
408.476	193.12
408.587	4.12
408.699	-2.88
408.81	-22.88
408.921	-34.88
409.032	-26.88
409.143	33.12
409.254	57.12
409.365	56.12
409.476	-36.88
409.587	38.12
409.698	72.12
409.809	71.12
409.92	-11.88
410.031	4.12
410.142	37.12
410.253	31.12
410.364	56.12
410.475	25.12
410.585	406.12
410.696	464.12
410.807	392.12
410.918	410.12
411.029	505.12
411.14	448.12
411.251	443.12
411.362	531.12
411.472	550.12
411.583	465.12
411.694	498.12
411.805	483.12
411.916	458.12
412.026	522.12
412.137	508.12
412.248	438.12
412.359	443.12
412.47	460.12
412.58	417.12
412.691	457.12
412.802	459.12
412.912	477.12
413.023	433.12
413.134	437.12
413.245	551.12
413.355	425.12
413.466	437.12
413.577	470.12
413.687	476.12
413.798	374.12
413.909	528.12
414.019	453.12
414.13	450.12
414.24	454.12
414.351	515.12
414.462	564.12
414.572	493.12
414.683	538.12
414.793	444.12
414.904	732.12
415.014	511.12
415.125	441.12
415.235	481.12
415.346	596.12
415.456	574.12
415.567	457.12
415.677	503.12
415.788	529.12
415.898	410.12
416.009	433.12
416.119	511.12
416.23	443.12
416.34	428.12
416.45	536.12
416.561	1006.12
416.671	574.12
416.782	472.12
416.892	442.12
417.002	444.12
417.113	543.12
417.223	481.12
417.333	456.12
417.444	487.12
417.554	512.12
417.664	529.12
417.775	451.12
417.885	512.12
417.995	525.12
418.106	584.12
418.216	538.12
418.326	504.12
418.436	482.12
418.547	515.12
418.657	497.12
418.767	552.12
418.877	540.12
418.987	535.12
419.098	537.12
419.208	498.12
419.318	622.12
419.428	596.12
419.538	506.12
419.648	597.12
419.759	578.12
419.869	578.12
419.979	567.12
420.089	560.12
420.199	486.12
420.309	559.12
420.419	615.12
420.529	505.12
420.639	824.12
420.749	649.12
420.859	569.12
420.969	574.12
421.079	807.12
421.189	576.12
421.299	575.12
421.409	532.12
421.519	615.12
421.629	616.12
421.739	551.12
421.849	566.12
421.959	536.12
422.069	641.12
422.179	592.12
422.289	512.12
422.399	574.12
422.509	697.12
422.619	3191.12
422.729	838.12
422.838	581.12
422.948	582.12
423.058	572.12
423.168	588.12
423.278	631.12
423.388	626.12
423.498	670.12
423.607	659.12
423.717	856.12
423.827	803.12
423.937	725.12
424.046	672.12
424.156	658.12
424.266	641.12
424.376	799.12
424.485	722.12
424.595	691.12
424.705	617.12
424.815	651.12
424.924	981.12
425.034	780.12
425.144	645.12
425.253	676.12
425.363	747.12
425.473	721.12
425.582	660.12
425.692	709.12
425.801	678.12
425.911	776.12
426.021	742.12
426.13	767.12
426.24	874.12
426.349	790.12
426.459	776.12
426.568	681.12
426.678	812.12
426.787	777.12
426.897	713.12
427.006	748.12
427.116	873.12
427.225	756.12
427.335	762.12
427.444	801.12
427.554	834.12
427.663	773.12
427.773	757.12
427.882	841.12
427.992	733.12
428.101	783.12
428.21	815.12
428.32	824.12
428.429	706.12
428.539	1029.12
428.648	789.12
428.757	826.12
428.867	909.12
428.976	940.12
429.085	821.12
429.195	799.12
429.304	838.12
429.413	839.12
429.523	904.12
429.632	925.12
429.741	854.12
429.85	801.12
429.96	917.12
430.069	863.12
430.178	794.12
430.287	1102.12
430.397	917.12
430.506	867.12
430.615	857.12
430.724	881.12
430.833	877.12
430.943	909.12
431.052	943.12
431.161	845.12
431.27	892.12
431.379	888.12
431.488	1000.12
431.597	969.12
431.706	1013.12
431.816	862.12
431.925	932.12
432.034	924.12
432.143	962.12
432.252	900.12
432.361	970.12
432.47	968.12
432.579	916.12
432.688	888.12
432.797	998.12
432.906	881.12
433.015	1005.12
433.124	1337.12
433.233	999.12
433.342	1003.12
433.451	969.12
433.56	929.12
433.669	915.12
433.778	971.12
433.886	1040.12
433.995	931.12
434.104	1037.12
434.213	1048.12
434.322	920.12
434.431	1056.12
434.54	1056.12
434.649	1104.12
434.757	1017.12
434.866	991.12
434.975	1063.12
435.084	1019.12
435.193	1055.12
435.301	1209.12
435.41	1246.12
435.519	1309.12
435.628	955.12
435.737	847.12
435.845	897.12
435.954	912.12
436.063	891.12
436.171	913.12
436.28	944.12
436.389	981.12
436.498	921.12
436.606	925.12
436.715	1116.12
436.823	877.12
436.932	861.12
437.041	918.12
437.149	921.12
437.258	801.12
437.367	865.12
437.475	862.12
437.584	997.12
437.692	866.12
437.801	2048.12
437.91	959.12
438.018	878.12
438.127	785.12
438.235	872.12
438.344	830.12
438.452	905.12
438.561	786.12
438.669	749.12
438.778	812.12
438.886	794.12
438.995	791.12
439.103	846.12
439.212	780.12
439.32	833.12
439.428	810.12
439.537	842.12
439.645	906.12
439.754	862.12
439.862	819.12
439.97	859.12
440.079	812.12
440.187	810.12
440.295	931.12
440.404	860.12
440.512	875.12
440.62	860.12
440.729	917.12
440.837	963.12
440.945	1375.12
441.054	888.12
441.162	888.12
441.27	984.12
441.378	837.12
441.487	916.12
441.595	1197.12
441.703	1001.12
441.811	925.12
441.92	934.12
442.028	819.12
442.136	893.12
442.244	984.12
442.352	889.12
442.461	823.12
442.569	860.12
442.677	839.12
442.785	882.12
442.893	816.12
443.001	860.12
443.109	809.12
443.217	812.12
443.325	904.12
443.434	1264.12
443.542	1082.12
443.65	896.12
443.758	977.12
443.866	895.12
443.974	1156.12
444.082	981.12
444.19	952.12
444.298	984.12
444.406	1035.12
444.514	993.12
444.622	1029.12
444.73	1060.12
444.838	950.12
444.946	1037.12
445.054	1020.12
445.161	942.12
445.269	949.12
445.377	985.12
445.485	955.12
445.593	915.12
445.701	1069.12
445.809	1004.12
445.917	952.12
446.025	869.12
446.132	1041.12
446.24	953.12
446.348	943.12
446.456	850.12
446.564	851.12
446.671	929.12
446.779	948.12
446.887	902.12
446.995	894.12
447.102	896.12
447.21	924.12
447.318	903.12
447.426	856.12
447.533	1166.12
447.641	1914.12
447.749	985.12
447.856	915.12
447.964	873.12
448.072	984.12
448.179	889.12
448.287	921.12
448.395	941.12
448.502	876.12
448.61	986.12
448.718	911.12
448.825	971.12
448.933	968.12
449.04	873.12
449.148	941.12
449.256	1019.12
449.363	953.12
449.471	923.12
449.578	1081.12
449.686	952.12
449.793	1059.12
449.901	1016.12
450.008	976.12
450.116	990.12
450.223	996.12
450.331	1062.12
450.438	973.12
450.546	1024.12
450.653	1140.12
450.76	1045.12
450.868	1049.12
450.975	1177.12
451.083	1000.12
451.19	1099.12
451.297	1110.12
451.405	1111.12
451.512	1030.12
451.619	1178.12
451.727	1184.12
451.834	1065.12
451.941	1081.12
452.049	1068.12
452.156	1117.12
452.263	1100.12
452.371	1187.12
452.478	1093.12
452.585	1188.12
452.692	1069.12
452.8	1113.12
452.907	1222.12
453.014	1150.12
453.121	1160.12
453.229	1146.12
453.336	1177.12
453.443	1289.12
453.55	1144.12
453.657	1144.12
453.765	1288.12
453.872	1158.12
453.979	1186.12
454.086	1209.12
454.193	1224.12
454.3	1194.12
454.407	1318.12
454.514	1294.12
454.621	1122.12
454.729	1200.12
454.836	1232.12
454.943	1202.12
455.05	1281.12
455.157	1347.12
455.264	1193.12
455.371	1297.12
455.478	1218.12
455.585	2238.12
455.692	1309.12
455.799	1406.12
455.906	1241.12
456.013	1169.12
456.12	1215.12
456.227	1280.12
456.334	1259.12
456.44	1403.12
456.547	1330.12
456.654	1229.12
456.761	1278.12
456.868	1400.12
456.975	1310.12
457.082	1257.12
457.189	1289.12
457.296	1337.12
457.402	1283.12
457.509	1278.12
457.616	1362.12
457.723	1436.12
457.83	1364.12
457.936	1342.12
458.043	1549.12
458.15	1381.12
458.257	1468.12
458.363	1409.12
458.47	1418.12
458.577	1475.12
458.684	1375.12
458.79	1476.12
458.897	1470.12
459.004	1516.12
459.11	1443.12
459.217	1511.12
459.324	1583.12
459.43	1547.12
459.537	1811.12
459.644	1652.12
459.75	1526.12
459.857	1817.12
459.964	1636.12
460.07	1592.12
460.177	1615.12
460.283	1671.12
460.39	1744.12
460.496	1643.12
460.603	1697.12
460.71	1671.12
460.816	1587.12
460.923	1596.12
461.029	1729.12
461.136	1617.12
461.242	1599.12
461.349	1654.12
461.455	1626.12
461.562	1855.12
461.668	1771.12
461.774	1691.12
461.881	1677.12
461.987	1647.12
462.094	1711.12
462.2	1708.12
462.307	1811.12
462.413	1775.12
462.519	1713.12
462.626	1882.12
462.732	1866.12
462.838	1912.12
462.945	1906.12
463.051	1910.12
463.157	1917.12
463.264	1910.12
463.37	1884.12
463.476	1843.12
463.583	1822.12
463.689	1759.12
463.795	1777.12
463.901	1766.12
464.008	1884.12
464.114	1795.12
464.22	1678.12
464.326	1797.12
464.433	1717.12
464.539	1725.12
464.645	1679.12
464.751	1848.12
464.857	1642.12
464.963	1511.12
465.07	1537.12
465.176	1621.12
465.282	1488.12
465.388	1610.12
465.494	1415.12
465.6	1403.12
465.706	1310.12
465.812	1385.12
465.918	1446.12
466.024	1354.12
466.131	1358.12
466.237	1315.12
466.343	1213.12
466.449	1275.12
466.555	1303.12
466.661	1180.12
466.767	1172.12
466.873	1277.12
466.979	1349.12
467.085	1226.12
467.191	1256.12
467.296	1205.12
467.402	1191.12
467.508	1216.12
467.614	1322.12
467.72	1162.12
467.826	1113.12
467.932	1239.12
468.038	1105.12
468.144	1169.12
468.25	1166.12
468.355	1086.12
468.461	1168.12
468.567	1161.12
468.673	1078.12
468.779	1116.12
468.885	1122.12
468.99	1070.12
469.096	1123.12
469.202	1167.12
469.308	1198.12
469.413	1161.12
469.519	1121.12
469.625	1175.12
469.731	1087.12
469.836	1089.12
469.942	1319.12
470.048	1119.12
470.153	1148.12
470.259	1107.12
470.365	1194.12
470.47	1160.12
470.576	1150.12
470.682	1177.12
470.787	1101.12
470.893	1064.12
470.999	1204.12
471.104	1167.12
471.21	1080.12
471.315	1023.12
471.421	981.12
471.527	1145.12
471.632	1129.12
471.738	1067.12
471.843	1013.12
471.949	1100.12
472.054	1049.12
472.16	967.12
472.265	1021.12
472.371	1002.12
472.476	1028.12
472.582	1052.12
472.687	1007.12
472.793	916.12
472.898	955.12
473.003	1004.12
473.109	966.12
473.214	938.12
473.32	965.12
473.425	1044.12
473.53	953.12
473.636	961.12
473.741	1003.12
473.847	924.12
473.952	926.12
474.057	1076.12
474.163	1051.12
474.268	967.12
474.373	1057.12
474.478	938.12
474.584	903.12
474.689	995.12
474.794	963.12
474.9	1162.12
475.005	999.12
475.11	1164.12
475.215	887.12
475.321	951.12
475.426	1155.12
475.531	1002.12
475.636	920.12
475.741	961.12
475.846	1039.12
475.952	1127.12
476.057	982.12
476.162	1022.12
476.267	1132.12
476.372	1214.12
476.477	991.12
476.582	1036.12
476.687	983.12
476.793	1055.12
476.898	959.12
477.003	1006.12
477.108	1046.12
477.213	960.12
477.318	955.12
477.423	1092.12
477.528	1082.12
477.633	1087.12
477.738	1076.12
477.843	1084.12
477.948	1013.12
478.053	1046.12
478.158	1073.12
478.263	1081.12
478.368	1049.12
478.473	1152.12
478.578	1058.12
478.682	1064.12
478.787	1160.12
478.892	1136.12
478.997	1144.12
479.102	1116.12
479.207	1082.12
479.312	1180.12
479.417	1127.12
479.521	1076.12
479.626	1187.12
479.731	1166.12
479.836	1122.12
479.941	1259.12
480.045	1242.12
480.15	1266.12
480.255	1206.12
480.36	1093.12
480.465	1207.12
480.569	1329.12
480.674	1177.12
480.779	1109.12
480.883	1234.12
480.988	1134.12
481.093	1127.12
481.197	1228.12
481.302	1205.12
481.407	1186.12
481.511	2669.12
481.616	1305.12
481.721	1195.12
481.825	1312.12
481.93	1169.12
482.035	1109.12
482.139	1273.12
482.244	1223.12
482.348	1229.12
482.453	1149.12
482.557	1233.12
482.662	1216.12
482.767	1189.12
482.871	1168.12
482.976	1136.12
483.08	1222.12
483.185	1352.12
483.289	1205.12
483.394	1161.12
483.498	1245.12
483.603	1232.12
483.707	1269.12
483.811	1239.12
483.916	1386.12
484.02	1264.12
484.125	1332.12
484.229	1385.12
484.333	1416.12
484.438	1283.12
484.542	1250.12
484.647	1327.12
484.751	1279.12
484.855	1309.12
484.96	1330.12
485.064	1378.12
485.168	1348.12
485.273	1409.12
485.377	1325.12
485.481	1510.12
485.585	1409.12
485.69	1284.12
485.794	1388.12
485.898	1428.12
486.002	1351.12
486.107	1364.12
486.211	1405.12
486.315	1402.12
486.419	1444.12
486.524	1425.12
486.628	1421.12
486.732	1339.12
486.836	1415.12
486.94	1498.12
487.044	1418.12
487.148	1425.12
487.253	1413.12
487.357	1441.12
487.461	1594.12
487.565	1482.12
487.669	1454.12
487.773	1390.12
487.877	1543.12
487.981	1484.12
488.085	1449.12
488.189	1451.12
488.293	1589.12
488.397	1822.12
488.501	1476.12
488.605	1450.12
488.709	1429.12
488.813	1377.12
488.917	1437.12
489.021	1391.12
489.125	1636.12
489.229	1437.12
489.333	1589.12
489.437	1469.12
489.541	1544.12
489.645	1440.12
489.749	1443.12
489.853	1487.12
489.956	1477.12
490.06	1490.12
490.164	1492.12
490.268	1490.12
490.372	1556.12
490.476	1444.12
490.579	1483.12
490.683	2011.12
490.787	1554.12
490.891	1474.12
490.995	1563.12
491.098	1474.12
491.202	1432.12
491.306	1559.12
491.41	1456.12
491.513	1446.12
491.617	1557.12
491.721	1664.12
491.824	1618.12
491.928	1502.12
492.032	1689.12
492.136	1501.12
492.239	1437.12
492.343	1540.12
492.446	1836.12
492.55	1527.12
492.654	1503.12
492.757	1450.12
492.861	1471.12
492.965	1566.12
493.068	1562.12
493.172	1492.12
493.275	1458.12
493.379	1496.12
493.482	1557.12
493.586	1619.12
493.689	1704.12
493.793	1480.12
493.896	1586.12
494	1631.12
494.103	1526.12
494.207	1764.12
494.31	1850.12
494.414	1545.12
494.517	1461.12
494.621	1448.12
494.724	1464.12
494.828	1423.12
494.931	1442.12
495.034	1498.12
495.138	1556.12
495.241	1413.12
495.345	2104.12
495.448	1600.12
495.551	1477.12
495.655	1500.12
495.758	1448.12
495.861	1477.12
495.965	1449.12
496.068	1468.12
496.171	1499.12
496.274	1431.12
496.378	1437.12
496.481	1441.12
496.584	1436.12
496.687	1510.12
496.791	1473.12
496.894	1449.12
496.997	1510.12
497.1	1489.12
497.204	1515.12
497.307	1446.12
497.41	1626.12
497.513	1673.12
497.616	1540.12
497.719	1468.12
497.823	1531.12
497.926	1483.12
498.029	1560.12
498.132	1606.12
498.235	1623.12
498.338	1682.12
498.441	1685.12
498.544	1622.12
498.647	1796.12
498.75	1784.12
498.853	1855.12
498.956	1766.12
499.059	2002.12
499.163	1850.12
499.266	1951.12
499.369	1967.12
499.471	1978.12
499.574	2143.12
499.677	2189.12
499.78	2252.12
499.883	2316.12
499.986	2476.12
500.089	2414.12
500.192	2517.12
500.295	2588.12
500.398	2546.12
500.501	2520.12
500.604	2420.12
500.707	2405.12
500.809	2368.12
500.912	2367.12
501.015	2267.12
501.118	2110.12
501.221	2068.12
501.324	2055.12
501.426	1935.12
501.529	1769.12
501.632	1766.12
501.735	1631.12
501.837	1595.12
501.94	1600.12
502.043	1544.12
502.146	1623.12
502.248	1580.12
502.351	1517.12
502.454	1460.12
502.557	1474.12
502.659	1521.12
502.762	1362.12
502.865	1417.12
502.967	1414.12
503.07	1354.12
503.173	1330.12
503.275	1349.12
503.378	1352.12
503.48	1250.12
503.583	1320.12
503.686	1375.12
503.788	1477.12
503.891	1234.12
503.993	1479.12
504.096	1272.12
504.198	1295.12
504.301	1293.12
504.403	1279.12
504.506	1239.12
504.608	1262.12
504.711	1281.12
504.813	1224.12
504.916	1237.12
505.018	1206.12
505.121	1157.12
505.223	1176.12
505.326	1175.12
505.428	1210.12
505.531	1126.12
505.633	1191.12
505.735	1060.12
505.838	1043.12
505.94	1097.12
506.042	1050.12
506.145	1085.12
506.247	1168.12
506.35	1043.12
506.452	1104.12
506.554	1097.12
506.656	1170.12
506.759	1039.12
506.861	1095.12
506.963	1102.12
507.066	1089.12
507.168	1138.12
507.27	1071.12
507.372	1020.12
507.475	1011.12
507.577	1048.12
507.679	1053.12
507.781	969.12
507.883	1042.12
507.986	1039.12
508.088	1012.12
508.19	1012.12
508.292	1045.12
508.394	983.12
508.496	956.12
508.598	1031.12
508.701	971.12
508.803	975.12
508.905	980.12
509.007	1005.12
509.109	1050.12
509.211	997.12
509.313	1008.12
509.415	990.12
509.517	1003.12
509.619	1002.12
509.721	1038.12
509.823	985.12
509.925	1117.12
510.027	996.12
510.129	961.12
510.231	1009.12
510.333	939.12
510.435	928.12
510.537	974.12
510.639	1017.12
510.741	945.12
510.843	1000.12
510.945	1010.12
511.047	1008.12
511.148	986.12
511.25	935.12
511.352	980.12
511.454	899.12
511.556	1009.12
511.658	961.12
511.76	1048.12
511.861	1081.12
511.963	980.12
512.065	957.12
512.167	905.12
512.268	1110.12
512.37	975.12
512.472	966.12
512.574	1098.12
512.676	1011.12
512.777	923.12
512.879	939.12
512.981	940.12
513.082	1007.12
513.184	983.12
513.286	1368.12
513.387	1001.12
513.489	1078.12
513.591	1100.12
513.692	1058.12
513.794	998.12
513.896	924.12
513.997	903.12
514.099	916.12
514.2	1032.12
514.302	1004.12
514.404	938.12
514.505	935.12
514.607	1089.12
514.708	951.12
514.81	1034.12
514.911	1083.12
515.013	1028.12
515.114	1041.12
515.216	1033.12
515.317	1019.12
515.419	985.12
515.52	1088.12
515.622	1073.12
515.723	1047.12
515.825	1204.12
515.926	1077.12
516.027	988.12
516.129	1033.12
516.23	1135.12
516.332	1125.12
516.433	1131.12
516.534	1263.12
516.636	1138.12
516.737	1101.12
516.838	2028.12
516.94	1254.12
517.041	1183.12
517.142	1325.12
517.244	1392.12
517.345	1282.12
517.446	1302.12
517.547	1375.12
517.649	1269.12
517.75	1281.12
517.851	1292.12
517.952	1448.12
518.054	1276.12
518.155	1385.12
518.256	1235.12
518.357	1323.12
518.458	1207.12
518.56	1239.12
518.661	1194.12
518.762	1229.12
518.863	1281.12
518.964	1268.12
519.065	1142.12
519.166	1204.12
519.268	1096.12
519.369	1416.12
519.47	1215.12
519.571	1187.12
519.672	1127.12
519.773	1132.12
519.874	1151.12
519.975	1235.12
520.076	1176.12
520.177	1241.12
520.278	1156.12
520.379	1147.12
520.48	1131.12
520.581	1102.12
520.682	1140.12
520.783	1142.12
520.884	1139.12
520.985	1171.12
521.086	1136.12
521.187	1132.12
521.288	1079.12
521.389	1149.12
521.489	1104.12
521.59	1052.12
521.691	1124.12
521.792	1152.12
521.893	1211.12
521.994	1223.12
522.095	1171.12
522.195	1186.12
522.296	1227.12
522.397	1212.12
522.498	1151.12
522.599	1126.12
522.699	1155.12
522.8	1170.12
522.901	1192.12
523.002	1157.12
523.102	1326.12
523.203	1175.12
523.304	1360.12
523.405	1212.12
523.505	1168.12
523.606	1199.12
523.707	1253.12
523.807	1193.12
523.908	1221.12
524.009	1295.12
524.109	1236.12
524.21	1168.12
524.31	1250.12
524.411	1340.12
524.512	1320.12
524.612	1275.12
524.713	1399.12
524.813	1195.12
524.914	1393.12
525.014	5757.12
525.115	1583.12
525.216	1153.12
525.316	1200.12
525.417	1204.12
525.517	1145.12
525.618	1198.12
525.718	1161.12
525.819	1112.12
525.919	1167.12
526.019	1198.12
526.12	1207.12
526.22	1085.12
526.321	1113.12
526.421	1070.12
526.522	1041.12
526.622	1083.12
526.722	1110.12
526.823	1034.12
526.923	1091.12
527.023	1232.12
527.124	1094.12
527.224	1168.12
527.324	1090.12
527.425	1119.12
527.525	1076.12
527.625	1132.12
527.726	1127.12
527.826	1200.12
527.926	1196.12
528.026	1182.12
528.127	1119.12
528.227	1135.12
528.327	1269.12
528.427	1185.12
528.528	1179.12
528.628	1260.12
528.728	1159.12
528.828	1215.12
528.928	1295.12
529.029	1204.12
529.129	1226.12
529.229	1240.12
529.329	1202.12
529.429	1185.12
529.529	1293.12
529.629	1183.12
529.729	1132.12
529.829	1265.12
529.93	1149.12
530.03	1172.12
530.13	1133.12
530.23	1137.12
530.33	1182.12
530.43	1065.12
530.53	1142.12
530.63	1133.12
530.73	1023.12
530.83	1057.12
530.93	1054.12
531.03	1029.12
531.13	1110.12
531.23	1076.12
531.33	1055.12
531.429	1101.12
531.529	1158.12
531.629	1086.12
531.729	971.12
531.829	1018.12
531.929	1039.12
532.029	1077.12
532.129	1092.12
532.229	1081.12
532.328	1041.12
532.428	1061.12
532.528	1026.12
532.628	1060.12
532.728	1059.12
532.827	1035.12
532.927	1091.12
533.027	1046.12
533.127	1248.12
533.227	1100.12
533.326	1118.12
533.426	1074.12
533.526	1160.12
533.625	1185.12
533.725	1309.12
533.825	1113.12
533.924	973.12
534.024	966.12
534.124	989.12
534.223	1015.12
534.323	1319.12
534.423	1078.12
534.522	1053.12
534.622	938.12
534.722	986.12
534.821	1052.12
534.921	972.12
535.02	955.12
535.12	1073.12
535.219	1112.12
535.319	1087.12
535.419	1149.12
535.518	997.12
535.618	997.12
535.717	1133.12
535.817	939.12
535.916	904.12
536.016	1070.12
536.115	925.12
536.215	900.12
536.314	911.12
536.413	897.12
536.513	908.12
536.612	896.12
536.712	889.12
536.811	903.12
536.91	828.12
537.01	913.12
537.109	927.12
537.209	879.12
537.308	877.12
537.407	853.12
537.507	909.12
537.606	937.12
537.705	914.12
537.805	875.12
537.904	804.12
538.003	939.12
538.102	948.12
538.202	892.12
538.301	1025.12
538.4	927.12
538.499	946.12
538.599	1025.12
538.698	1127.12
538.797	915.12
538.896	1029.12
538.995	977.12
539.095	940.12
539.194	1164.12
539.293	954.12
539.392	910.12
539.491	913.12
539.59	938.12
539.689	987.12
539.789	989.12
539.888	829.12
539.987	781.12
540.086	871.12
540.185	906.12
540.284	944.12
540.383	905.12
540.482	927.12
540.581	1002.12
540.68	948.12
540.779	983.12
540.878	1003.12
540.977	1029.12
541.076	984.12
541.175	1036.12
541.274	1096.12
541.373	1014.12
541.472	1026.12
541.571	952.12
541.67	2013.12
541.769	1060.12
541.868	975.12
541.966	1016.12
542.065	1018.12
542.164	1005.12
542.263	946.12
542.362	957.12
542.461	992.12
542.56	940.12
542.658	965.12
542.757	937.12
542.856	845.12
542.955	835.12
543.054	856.12
543.152	1035.12
543.251	885.12
543.35	1015.12
543.449	950.12
543.547	899.12
543.646	874.12
543.745	1001.12
543.843	967.12
543.942	956.12
544.041	944.12
544.14	968.12
544.238	939.12
544.337	1169.12
544.436	975.12
544.534	1071.12
544.633	1015.12
544.731	967.12
544.83	976.12
544.929	992.12
545.027	1035.12
545.126	959.12
545.224	1014.12
545.323	1005.12
545.421	961.12
545.52	999.12
545.619	1001.12
545.717	979.12
545.816	1032.12
545.914	1020.12
546.013	1179.12
546.111	1076.12
546.209	961.12
546.308	1010.12
546.406	955.12
546.505	1118.12
546.603	1016.12
546.702	922.12
546.8	979.12
546.899	959.12
546.997	1002.12
547.095	987.12
547.194	1016.12
547.292	998.12
547.39	1050.12
547.489	957.12
547.587	1246.12
547.685	957.12
547.784	1184.12
547.882	1092.12
547.98	943.12
548.079	981.12
548.177	997.12
548.275	906.12
548.373	1061.12
548.472	953.12
548.57	991.12
548.668	1025.12
548.766	964.12
548.864	1089.12
548.963	941.12
549.061	1077.12
549.159	994.12
549.257	1002.12
549.355	983.12
549.454	1005.12
549.552	984.12
549.65	977.12
549.748	937.12
549.846	970.12
549.944	913.12
550.042	924.12
550.14	951.12
550.238	995.12
550.336	895.12
550.434	917.12
550.532	903.12
550.631	1031.12
550.729	1013.12
550.827	970.12
550.925	899.12
551.023	950.12
551.121	858.12
551.218	892.12
551.316	828.12
551.414	866.12
551.512	793.12
551.61	838.12
551.708	985.12
551.806	877.12
551.904	839.12
552.002	914.12
552.1	915.12
552.198	889.12
552.296	1078.12
552.393	1076.12
552.491	1050.12
552.589	1031.12
552.687	1084.12
552.785	989.12
552.882	1108.12
552.98	1211.12
553.078	1080.12
553.176	1064.12
553.274	990.12
553.371	971.12
553.469	968.12
553.567	1015.12
553.665	954.12
553.762	1354.12
553.86	1051.12
553.958	1031.12
554.055	972.12
554.153	1042.12
554.251	1001.12
554.348	992.12
554.446	949.12
554.544	1024.12
554.641	1183.12
554.739	956.12
554.837	1018.12
554.934	915.12
555.032	906.12
555.129	936.12
555.227	1199.12
555.324	5102.12
555.422	1288.12
555.519	967.12
555.617	878.12
555.715	811.12
555.812	2282.12
555.91	989.12
556.007	841.12
556.105	897.12
556.202	880.12
556.299	815.12
556.397	921.12
556.494	825.12
556.592	835.12
556.689	955.12
556.787	932.12
556.884	848.12
556.981	828.12
557.079	879.12
557.176	887.12
557.273	895.12
557.371	1010.12
557.468	845.12
557.566	927.12
557.663	931.12
557.76	903.12
557.857	839.12
557.955	922.12
558.052	960.12
558.149	972.12
558.247	1025.12
558.344	935.12
558.441	857.12
558.538	842.12
558.636	884.12
558.733	903.12
558.83	872.12
558.927	864.12
559.024	827.12
559.122	838.12
559.219	873.12
559.316	955.12
559.413	969.12
559.51	870.12
559.607	888.12
559.704	874.12
559.801	925.12
559.899	899.12
559.996	1062.12
560.093	936.12
560.19	841.12
560.287	909.12
560.384	991.12
560.481	865.12
560.578	865.12
560.675	821.12
560.772	913.12
560.869	914.12
560.966	989.12
561.063	840.12
561.16	919.12
561.257	886.12
561.354	856.12
561.451	904.12
561.548	914.12
561.645	1032.12
561.742	910.12
561.838	837.12
561.935	864.12
562.032	872.12
562.129	907.12
562.226	857.12
562.323	851.12
562.42	909.12
562.516	865.12
562.613	852.12
562.71	900.12
562.807	1507.12
562.904	909.12
563	903.12
563.097	817.12
563.194	885.12
563.291	860.12
563.387	852.12
563.484	874.12
563.581	888.12
563.678	844.12
563.774	1163.12
563.871	904.12
563.968	881.12
564.064	830.12
564.161	873.12
564.258	897.12
564.354	957.12
564.451	868.12
564.548	925.12
564.644	892.12
564.741	884.12
564.837	809.12
564.934	870.12
565.031	890.12
565.127	908.12
565.224	973.12
565.32	1023.12
565.417	887.12
565.513	992.12
565.61	895.12
565.706	985.12
565.803	991.12
565.899	977.12
565.996	1008.12
566.092	976.12
566.189	991.12
566.285	968.12
566.382	978.12
566.478	1097.12
566.574	1115.12
566.671	1060.12
566.767	1097.12
566.864	1020.12
566.96	1079.12
567.056	1098.12
567.153	1238.12
567.249	1138.12
567.345	1172.12
567.442	1182.12
567.538	1142.12
567.634	1096.12
567.731	1171.12
567.827	1072.12
567.923	1123.12
568.019	1084.12
568.116	938.12
568.212	904.12
568.308	974.12
568.404	919.12
568.501	889.12
568.597	903.12
568.693	852.12
568.789	1321.12
568.885	834.12
568.982	866.12
569.078	831.12
569.174	844.12
569.27	777.12
569.366	821.12
569.462	773.12
569.558	775.12
569.655	753.12
569.751	704.12
569.847	729.12
569.943	737.12
570.039	638.12
570.135	1078.12
570.231	761.12
570.327	831.12
570.423	803.12
570.519	813.12
570.615	733.12
570.711	853.12
570.807	859.12
570.903	764.12
570.999	815.12
571.095	825.12
571.191	758.12
571.287	761.12
571.383	836.12
571.479	791.12
571.574	810.12
571.67	746.12
571.766	967.12
571.862	727.12
571.958	719.12
572.054	835.12
572.15	647.12
572.246	643.12
572.341	808.12
572.437	684.12
572.533	695.12
572.629	654.12
572.725	685.12
572.82	642.12
572.916	766.12
573.012	685.12
573.108	726.12
573.203	601.12
573.299	626.12
573.395	572.12
573.49	549.12
573.586	646.12
573.682	624.12
573.778	726.12
573.873	613.12
573.969	591.12
574.065	608.12
574.16	621.12
574.256	661.12
574.351	665.12
574.447	567.12
574.543	659.12
574.638	699.12
574.734	670.12
574.829	859.12
574.925	680.12
575.02	589.12
575.116	638.12
575.212	642.12
575.307	728.12
575.403	599.12
575.498	681.12
575.594	594.12
575.689	657.12
575.784	719.12
575.88	631.12
575.975	672.12
576.071	664.12
576.166	577.12
576.262	599.12
576.357	633.12
576.452	709.12
576.548	649.12
576.643	568.12
576.739	650.12
576.834	597.12
576.929	566.12
577.025	1219.12
577.12	550.12
577.215	516.12
577.311	637.12
577.406	659.12
577.501	677.12
577.597	519.12
577.692	696.12
577.787	672.12
577.882	567.12
577.978	621.12
578.073	550.12
578.168	524.12
578.263	560.12
578.358	520.12
578.454	451.12
578.549	555.12
578.644	423.12
578.739	549.12
578.834	536.12
578.929	481.12
579.025	473.12
579.12	571.12
579.215	713.12
579.31	633.12
579.405	500.12
579.5	580.12
579.595	479.12
579.69	456.12
579.785	514.12
579.88	456.12
579.975	504.12
580.07	517.12
580.165	480.12
580.26	582.12
580.355	539.12
580.45	594.12
580.545	466.12
580.64	496.12
580.735	580.12
580.83	542.12
580.925	452.12
581.02	479.12
581.115	449.12
581.21	410.12
581.305	494.12
581.4	491.12
581.495	459.12
581.589	534.12
581.684	421.12
581.779	513.12
581.874	493.12
581.969	586.12
582.064	447.12
582.158	489.12
582.253	472.12
582.348	466.12
582.443	488.12
582.537	504.12
582.632	636.12
582.727	453.12
582.822	460.12
582.916	447.12
583.011	453.12
583.106	524.12
583.201	468.12
583.295	417.12
583.39	405.12
583.485	441.12
583.579	1857.12
583.674	583.12
583.769	640.12
583.863	453.12
583.958	433.12
584.052	381.12
584.147	395.12
584.242	375.12
584.336	473.12
584.431	552.12
584.525	405.12
584.62	559.12
584.714	517.12
584.809	425.12
584.903	421.12
584.998	510.12
585.092	362.12
585.187	414.12
585.281	432.12
585.376	404.12
585.47	423.12
585.565	411.12
585.659	349.12
585.754	356.12
585.848	414.12
585.942	392.12
586.037	342.12
586.131	2266.12
586.226	581.12
586.32	430.12
586.414	309.12
586.509	486.12
586.603	438.12
586.697	354.12
586.792	393.12
586.886	333.12
586.98	464.12
587.075	415.12
587.169	383.12
587.263	522.12
587.357	401.12
587.452	387.12
587.546	456.12
587.64	321.12
587.734	377.12
587.829	371.12
587.923	297.12
588.017	401.12
588.111	343.12
588.205	394.12
588.3	352.12
588.394	292.12
588.488	289.12
588.582	340.12
588.676	393.12
588.77	311.12
588.864	429.12
588.958	406.12
589.052	287.12
589.147	368.12
589.241	403.12
589.335	335.12
589.429	387.12
589.523	367.12
589.617	402.12
589.711	382.12
589.805	391.12
589.899	468.12
589.993	316.12
590.087	283.12
590.181	311.12
590.275	349.12
590.369	273.12
590.462	338.12
590.556	296.12
590.65	282.12
590.744	361.12
590.838	317.12
590.932	306.12
591.026	362.12
591.12	452.12
591.214	317.12
591.307	379.12
591.401	389.12
591.495	333.12
591.589	285.12
591.683	352.12
591.777	381.12
591.87	624.12
591.964	432.12
592.058	322.12
592.152	400.12
592.245	383.12
592.339	442.12
592.433	458.12
592.527	398.12
592.62	382.12
592.714	341.12
592.808	399.12
592.901	443.12
592.995	309.12
593.089	577.12
593.182	469.12
593.276	355.12
593.37	296.12
593.463	347.12
593.557	369.12
593.65	308.12
593.744	384.12
593.837	485.12
593.931	332.12
594.025	2352.12
594.118	636.12
594.212	351.12
594.305	332.12
594.399	442.12
594.492	639.12
594.586	367.12
594.679	357.12
594.773	348.12
594.866	398.12
594.96	348.12
595.053	369.12
595.146	315.12
595.24	322.12
595.333	337.12
595.427	241.12
595.52	298.12
595.614	471.12
595.707	340.12
595.8	299.12
595.894	358.12
595.987	323.12
596.08	269.12
596.174	611.12
596.267	435.12
596.36	409.12
596.454	444.12
596.547	443.12
596.64	321.12
596.733	276.12
596.827	399.12
596.92	313.12
597.013	252.12
597.106	258.12
597.2	272.12
597.293	229.12
597.386	441.12
597.479	425.12
597.572	313.12
597.666	268.12
597.759	326.12
597.852	385.12
597.945	231.12
598.038	351.12
598.131	328.12
598.224	284.12
598.317	361.12
598.411	307.12
598.504	289.12
598.597	360.12
598.69	294.12
598.783	278.12
598.876	315.12
598.969	350.12
599.062	264.12
599.155	356.12
599.248	331.12
599.341	283.12
599.434	260.12
599.527	341.12
599.62	281.12
599.713	249.12
599.806	344.12
599.899	463.12
599.991	267.12
600.084	472.12
600.177	331.12
600.27	252.12
600.363	404.12
600.456	310.12
600.549	279.12
600.642	252.12
600.734	325.12
600.827	267.12
600.92	356.12
601.013	318.12
601.106	343.12
601.199	283.12
601.291	332.12
601.384	323.12
601.477	453.12
601.57	393.12
601.662	318.12
601.755	328.12
601.848	326.12
601.94	329.12
602.033	409.12
602.126	327.12
602.219	318.12
602.311	399.12
602.404	294.12
602.497	311.12
602.589	289.12
602.682	325.12
602.774	336.12
602.867	330.12
602.96	286.12
603.052	301.12
603.145	340.12
603.237	281.12
603.33	298.12
603.422	423.12
603.515	245.12
603.608	303.12
603.7	303.12
603.793	305.12
603.885	305.12
603.978	281.12
604.07	286.12
604.163	258.12
604.255	283.12
604.347	281.12
604.44	217.12
604.532	319.12
604.625	353.12
604.717	281.12
604.81	322.12
604.902	294.12
604.994	264.12
605.087	247.12
605.179	288.12
605.271	341.12
605.364	266.12
605.456	332.12
605.548	305.12
605.641	254.12
605.733	263.12
605.825	345.12
605.918	275.12
606.01	388.12
606.102	677.12
606.194	335.12
606.287	403.12
606.379	290.12
606.471	343.12
606.563	352.12
606.655	351.12
606.748	400.12
606.84	272.12
606.932	349.12
607.024	340.12
607.116	277.12
607.208	284.12
607.301	372.12
607.393	281.12
607.485	277.12
607.577	376.12
607.669	411.12
607.761	316.12
607.853	491.12
607.945	328.12
608.037	249.12
608.129	287.12
608.221	354.12
608.313	253.12
608.405	332.12
608.497	324.12
608.589	256.12
608.681	313.12
608.773	385.12
608.865	312.12
608.957	274.12
609.049	266.12
609.141	417.12
609.233	284.12
609.325	217.12
609.417	292.12
609.509	348.12
609.601	417.12
609.693	384.12
609.784	252.12
609.876	287.12
609.968	320.12
610.06	2174.12
610.152	510.12
610.244	994.12
610.335	388.12
610.427	283.12
610.519	265.12
610.611	388.12
610.702	260.12
610.794	314.12
610.886	385.12
610.978	312.12
611.069	673.12
611.161	355.12
611.253	351.12
611.344	271.12
611.436	234.12
611.528	332.12
611.62	217.12
611.711	286.12
611.803	269.12
611.894	195.12
611.986	220.12
612.078	339.12
612.169	266.12
612.261	286.12
612.352	247.12
612.444	225.12
612.536	318.12
612.627	276.12
612.719	237.12
612.81	187.12
612.902	172.12
612.993	265.12
613.085	220.12
613.176	156.12
613.268	238.12
613.359	170.12
613.451	174.12
613.542	247.12
613.634	170.12
613.725	205.12
613.816	289.12
613.908	184.12
613.999	141.12
614.091	118.12
614.182	134.12
614.273	184.12
614.365	116.12
614.456	142.12
614.547	108.12
614.639	106.12
614.73	164.12
614.821	216.12
614.913	68.12
615.004	66.12
615.095	105.12
615.187	54.12
