Data from sinsal_HRC06701__1__62.txt Node

Date: Thu Apr 18 01:41:04 CDT 2024
User: Estudiantes 2
Spectrometer: HR+C0670
Trigger mode: 4
Integration Time (sec): 1.000000E0
Scans to average: 1
Electric dark correction enabled: true
Nonlinearity correction enabled: false
Boxcar width: 0
XAxis mode: Wavelengths
Number of Pixels in Spectrum: 2048
>>>>>Begin Spectral Data<<<<<
407.81	-77.12
407.921	-77.12
408.032	-77.12
408.143	-129.12
408.254	-107.12
408.365	20.88
408.476	224.88
408.587	-28.12
408.699	-33.12
408.81	-5.12
408.921	-65.12
409.032	-41.12
409.143	85.88
409.254	-1.12
409.365	76.88
409.476	26.88
409.587	6.88
409.698	44.88
409.809	103.88
409.92	-5.12
410.031	-14.12
410.142	60.88
410.253	49.88
410.364	13.88
410.475	30.88
410.585	377.88
410.696	372.88
410.807	388.88
410.918	416.88
411.029	427.88
411.14	438.88
411.251	411.88
411.362	440.88
411.472	415.88
411.583	432.88
411.694	461.88
411.805	379.88
411.916	402.88
412.026	514.88
412.137	412.88
412.248	412.88
412.359	469.88
412.47	363.88
412.58	372.88
412.691	460.88
412.802	403.88
412.912	367.88
413.023	456.88
413.134	433.88
413.245	467.88
413.355	392.88
413.466	430.88
413.577	359.88
413.687	473.88
413.798	420.88
413.909	425.88
414.019	411.88
414.13	457.88
414.24	349.88
414.351	450.88
414.462	580.88
414.572	486.88
414.683	446.88
414.793	376.88
414.904	752.88
415.014	393.88
415.125	343.88
415.235	475.88
415.346	476.88
415.456	479.88
415.567	440.88
415.677	428.88
415.788	419.88
415.898	415.88
416.009	379.88
416.119	415.88
416.23	383.88
416.34	407.88
416.45	394.88
416.561	1104.88
416.671	552.88
416.782	328.88
416.892	378.88
417.002	474.88
417.113	470.88
417.223	424.88
417.333	412.88
417.444	382.88
417.554	420.88
417.664	489.88
417.775	400.88
417.885	439.88
417.995	386.88
418.106	583.88
418.216	458.88
418.326	461.88
418.436	470.88
418.547	388.88
418.657	348.88
418.767	537.88
418.877	412.88
418.987	406.88
419.098	447.88
419.208	442.88
419.318	530.88
419.428	495.88
419.538	447.88
419.648	464.88
419.759	518.88
419.869	549.88
419.979	427.88
420.089	432.88
420.199	464.88
420.309	503.88
420.419	469.88
420.529	466.88
420.639	903.88
420.749	489.88
420.859	543.88
420.969	508.88
421.079	646.88
421.189	576.88
421.299	546.88
421.409	418.88
421.519	537.88
421.629	558.88
421.739	468.88
421.849	410.88
421.959	464.88
422.069	492.88
422.179	477.88
422.289	462.88
422.399	516.88
422.509	543.88
422.619	2564.88
422.729	787.88
422.838	426.88
422.948	496.88
423.058	548.88
423.168	507.88
423.278	493.88
423.388	545.88
423.498	596.88
423.607	544.88
423.717	793.88
423.827	793.88
423.937	528.88
424.046	584.88
424.156	655.88
424.266	525.88
424.376	734.88
424.485	731.88
424.595	543.88
424.705	492.88
424.815	547.88
424.924	858.88
425.034	612.88
425.144	518.88
425.253	607.88
425.363	583.88
425.473	651.88
425.582	584.88
425.692	521.88
425.801	520.88
425.911	705.88
426.021	602.88
426.13	713.88
426.24	796.88
426.349	707.88
426.459	598.88
426.568	641.88
426.678	696.88
426.787	617.88
426.897	613.88
427.006	646.88
427.116	656.88
427.225	624.88
427.335	703.88
427.444	613.88
427.554	679.88
427.663	706.88
427.773	642.88
427.882	715.88
427.992	607.88
428.101	603.88
428.21	603.88
428.32	650.88
428.429	645.88
428.539	857.88
428.648	655.88
428.757	734.88
428.867	688.88
428.976	827.88
429.085	736.88
429.195	615.88
429.304	696.88
429.413	792.88
429.523	778.88
429.632	732.88
429.741	724.88
429.85	708.88
429.96	711.88
430.069	727.88
430.178	773.88
430.287	898.88
430.397	737.88
430.506	769.88
430.615	651.88
430.724	751.88
430.833	778.88
430.943	734.88
431.052	720.88
431.161	751.88
431.27	786.88
431.379	724.88
431.488	834.88
431.597	876.88
431.706	814.88
431.816	760.88
431.925	804.88
432.034	755.88
432.143	806.88
432.252	807.88
432.361	779.88
432.47	728.88
432.579	778.88
432.688	830.88
432.797	772.88
432.906	704.88
433.015	850.88
433.124	1075.88
433.233	829.88
433.342	867.88
433.451	807.88
433.56	748.88
433.669	817.88
433.778	763.88
433.886	755.88
433.995	759.88
434.104	880.88
434.213	756.88
434.322	753.88
434.431	903.88
434.54	784.88
434.649	969.88
434.757	886.88
434.866	803.88
434.975	855.88
435.084	892.88
435.193	870.88
435.301	1032.88
435.41	1106.88
435.519	1106.88
435.628	801.88
435.737	739.88
435.845	725.88
435.954	693.88
436.063	765.88
436.171	768.88
436.28	757.88
436.389	843.88
436.498	770.88
436.606	710.88
436.715	872.88
436.823	796.88
436.932	713.88
437.041	716.88
437.149	774.88
437.258	755.88
437.367	659.88
437.475	635.88
437.584	877.88
437.692	722.88
437.801	1910.88
437.91	877.88
438.018	676.88
438.127	644.88
438.235	785.88
438.344	679.88
438.452	735.88
438.561	682.88
438.669	703.88
438.778	618.88
438.886	665.88
438.995	682.88
439.103	709.88
439.212	635.88
439.32	699.88
439.428	605.88
439.537	656.88
439.645	759.88
439.754	662.88
439.862	639.88
439.97	731.88
440.079	694.88
440.187	606.88
440.295	811.88
440.404	691.88
440.512	677.88
440.62	700.88
440.729	796.88
440.837	726.88
440.945	1201.88
441.054	831.88
441.162	687.88
441.27	738.88
441.378	711.88
441.487	688.88
441.595	987.88
441.703	792.88
441.811	771.88
441.92	698.88
442.028	667.88
442.136	795.88
442.244	732.88
442.352	693.88
442.461	705.88
442.569	604.88
442.677	651.88
442.785	735.88
442.893	668.88
443.001	667.88
443.109	655.88
443.217	640.88
443.325	652.88
443.434	1108.88
443.542	942.88
443.65	664.88
443.758	822.88
443.866	774.88
443.974	898.88
444.082	765.88
444.19	755.88
444.298	754.88
444.406	804.88
444.514	760.88
444.622	815.88
444.73	856.88
444.838	802.88
444.946	825.88
445.054	739.88
445.161	717.88
445.269	736.88
445.377	759.88
445.485	742.88
445.593	765.88
445.701	833.88
445.809	834.88
445.917	793.88
446.025	646.88
446.132	793.88
446.24	777.88
446.348	764.88
446.456	670.88
446.564	756.88
446.671	820.88
446.779	683.88
446.887	652.88
446.995	735.88
447.102	763.88
447.21	747.88
447.318	769.88
447.426	671.88
447.533	935.88
447.641	1672.88
447.749	866.88
447.856	687.88
447.964	743.88
448.072	840.88
448.179	677.88
448.287	768.88
448.395	836.88
448.502	729.88
448.61	774.88
448.718	788.88
448.825	766.88
448.933	690.88
449.04	754.88
449.148	782.88
449.256	735.88
449.363	784.88
449.471	837.88
449.578	827.88
449.686	725.88
449.793	883.88
449.901	734.88
450.008	786.88
450.116	876.88
450.223	794.88
450.331	823.88
450.438	839.88
450.546	851.88
450.653	848.88
450.76	874.88
450.868	892.88
450.975	980.88
451.083	830.88
451.19	935.88
451.297	875.88
451.405	860.88
451.512	831.88
451.619	929.88
451.727	915.88
451.834	889.88
451.941	851.88
452.049	906.88
452.156	873.88
452.263	970.88
452.371	894.88
452.478	899.88
452.585	1055.88
452.692	833.88
452.8	931.88
452.907	1061.88
453.014	952.88
453.121	859.88
453.229	973.88
453.336	1001.88
453.443	992.88
453.55	931.88
453.657	984.88
453.765	1011.88
453.872	982.88
453.979	1073.88
454.086	952.88
454.193	951.88
454.3	961.88
454.407	1032.88
454.514	1082.88
454.621	997.88
454.729	963.88
454.836	981.88
454.943	973.88
455.05	1015.88
455.157	1047.88
455.264	1031.88
455.371	1085.88
455.478	957.88
455.585	1996.88
455.692	1153.88
455.799	1143.88
455.906	1013.88
456.013	1027.88
456.12	971.88
456.227	993.88
456.334	1059.88
456.44	1152.88
456.547	1028.88
456.654	972.88
456.761	1110.88
456.868	1108.88
456.975	1071.88
457.082	1087.88
457.189	1019.88
457.296	1048.88
457.402	1100.88
457.509	1001.88
457.616	1066.88
457.723	1228.88
457.83	1084.88
457.936	1031.88
458.043	1318.88
458.15	1139.88
458.257	1173.88
458.363	1121.88
458.47	1157.88
458.577	1155.88
458.684	1092.88
458.79	1222.88
458.897	1138.88
459.004	1194.88
459.11	1184.88
459.217	1189.88
459.324	1269.88
459.43	1305.88
459.537	1443.88
459.644	1253.88
459.75	1204.88
459.857	1540.88
459.964	1295.88
460.07	1297.88
460.177	1296.88
460.283	1309.88
460.39	1384.88
460.496	1323.88
460.603	1360.88
460.71	1313.88
460.816	1267.88
460.923	1228.88
461.029	1295.88
461.136	1296.88
461.242	1341.88
461.349	1253.88
461.455	1244.88
461.562	1535.88
461.668	1376.88
461.774	1250.88
461.881	1348.88
461.987	1319.88
462.094	1338.88
462.2	1367.88
462.307	1400.88
462.413	1285.88
462.519	1340.88
462.626	1530.88
462.732	1340.88
462.838	1443.88
462.945	1559.88
463.051	1478.88
463.157	1462.88
463.264	1495.88
463.37	1440.88
463.476	1402.88
463.583	1400.88
463.689	1367.88
463.795	1322.88
463.901	1368.88
464.008	1479.88
464.114	1361.88
464.22	1372.88
464.326	1431.88
464.433	1302.88
464.539	1320.88
464.645	1315.88
464.751	1417.88
464.857	1302.88
464.963	1208.88
465.07	1240.88
465.176	1217.88
465.282	1196.88
465.388	1235.88
465.494	1100.88
465.6	1089.88
465.706	1128.88
465.812	1012.88
465.918	1096.88
466.024	1121.88
466.131	1096.88
466.237	1029.88
466.343	1012.88
466.449	997.88
466.555	995.88
466.661	966.88
466.767	991.88
466.873	953.88
466.979	1100.88
467.085	1026.88
467.191	985.88
467.296	917.88
467.402	985.88
467.508	952.88
467.614	1062.88
467.72	976.88
467.826	915.88
467.932	911.88
468.038	950.88
468.144	967.88
468.25	876.88
468.355	875.88
468.461	987.88
468.567	856.88
468.673	904.88
468.779	988.88
468.885	844.88
468.99	855.88
469.096	943.88
469.202	962.88
469.308	875.88
469.413	942.88
469.519	932.88
469.625	886.88
469.731	925.88
469.836	911.88
469.942	1036.88
470.048	973.88
470.153	951.88
470.259	894.88
470.365	1003.88
470.47	984.88
470.576	917.88
470.682	907.88
470.787	919.88
470.893	886.88
470.999	926.88
471.104	947.88
471.21	833.88
471.315	783.88
471.421	789.88
471.527	1051.88
471.632	884.88
471.738	897.88
471.843	870.88
471.949	827.88
472.054	881.88
472.16	855.88
472.265	795.88
472.371	785.88
472.476	868.88
472.582	906.88
472.687	807.88
472.793	735.88
472.898	798.88
473.003	795.88
473.109	751.88
473.214	798.88
473.32	786.88
473.425	861.88
473.53	843.88
473.636	747.88
473.741	787.88
473.847	762.88
473.952	819.88
474.057	835.88
474.163	841.88
474.268	817.88
474.373	803.88
474.478	758.88
474.584	770.88
474.689	807.88
474.794	814.88
474.9	1040.88
475.005	780.88
475.11	904.88
475.215	784.88
475.321	801.88
475.426	924.88
475.531	901.88
475.636	847.88
475.741	797.88
475.846	858.88
475.952	1015.88
476.057	858.88
476.162	847.88
476.267	955.88
476.372	1009.88
476.477	794.88
476.582	905.88
476.687	835.88
476.793	823.88
476.898	862.88
477.003	902.88
477.108	815.88
477.213	762.88
477.318	877.88
477.423	895.88
477.528	900.88
477.633	978.88
477.738	842.88
477.843	835.88
477.948	855.88
478.053	859.88
478.158	815.88
478.263	862.88
478.368	864.88
478.473	938.88
478.578	973.88
478.682	942.88
478.787	915.88
478.892	881.88
478.997	959.88
479.102	870.88
479.207	866.88
479.312	1027.88
479.417	907.88
479.521	913.88
479.626	1016.88
479.731	948.88
479.836	921.88
479.941	1020.88
480.045	1040.88
480.15	964.88
480.255	932.88
480.36	971.88
480.465	972.88
480.569	1119.88
480.674	1015.88
480.779	900.88
480.883	929.88
480.988	1007.88
481.093	985.88
481.197	949.88
481.302	993.88
481.407	1025.88
481.511	2426.88
481.616	1084.88
481.721	1002.88
481.825	1097.88
481.93	931.88
482.035	980.88
482.139	1033.88
482.244	986.88
482.348	1022.88
482.453	996.88
482.557	1036.88
482.662	1025.88
482.767	990.88
482.871	989.88
482.976	966.88
483.08	1052.88
483.185	1107.88
483.289	1004.88
483.394	1059.88
483.498	1073.88
483.603	999.88
483.707	1064.88
483.811	1065.88
483.916	1092.88
484.02	1081.88
484.125	1168.88
484.229	1109.88
484.333	1121.88
484.438	1080.88
484.542	1044.88
484.647	1054.88
484.751	1142.88
484.855	1019.88
484.96	1093.88
485.064	1157.88
485.168	1082.88
485.273	1088.88
485.377	1133.88
485.481	1292.88
485.585	1108.88
485.69	1104.88
485.794	1182.88
485.898	1114.88
486.002	1114.88
486.107	1222.88
486.211	1190.88
486.315	1177.88
486.419	1289.88
486.524	1172.88
486.628	1139.88
486.732	1138.88
486.836	1205.88
486.94	1265.88
487.044	1161.88
487.148	1190.88
487.253	1127.88
487.357	1225.88
487.461	1346.88
487.565	1212.88
487.669	1167.88
487.773	1266.88
487.877	1258.88
487.981	1269.88
488.085	1270.88
488.189	1208.88
488.293	1284.88
488.397	1567.88
488.501	1334.88
488.605	1189.88
488.709	1240.88
488.813	1268.88
488.917	1176.88
489.021	1215.88
489.125	1443.88
489.229	1208.88
489.333	1418.88
489.437	1293.88
489.541	1214.88
489.645	1191.88
489.749	1251.88
489.853	1332.88
489.956	1219.88
490.06	1283.88
490.164	1269.88
490.268	1239.88
490.372	1248.88
490.476	1284.88
490.579	1224.88
490.683	1753.88
490.787	1350.88
490.891	1251.88
490.995	1238.88
491.098	1279.88
491.202	1208.88
491.306	1300.88
491.41	1270.88
491.513	1270.88
491.617	1274.88
491.721	1416.88
491.824	1584.88
491.928	1308.88
492.032	1451.88
492.136	1334.88
492.239	1249.88
492.343	1281.88
492.446	1588.88
492.55	1347.88
492.654	1221.88
492.757	1166.88
492.861	1331.88
492.965	1249.88
493.068	1268.88
493.172	1323.88
493.275	1228.88
493.379	1246.88
493.482	1401.88
493.586	1365.88
493.689	1451.88
493.793	1280.88
493.896	1324.88
494	1313.88
494.103	1346.88
494.207	1574.88
494.31	1549.88
494.414	1313.88
494.517	1314.88
494.621	1200.88
494.724	1213.88
494.828	1273.88
494.931	1266.88
495.034	1251.88
495.138	1426.88
495.241	1241.88
495.345	1814.88
495.448	1382.88
495.551	1256.88
495.655	1210.88
495.758	1229.88
495.861	1263.88
495.965	1212.88
496.068	1270.88
496.171	1371.88
496.274	1205.88
496.378	1181.88
496.481	1321.88
496.584	1267.88
496.687	1194.88
496.791	1288.88
496.894	1319.88
496.997	1227.88
497.1	1244.88
497.204	1333.88
497.307	1167.88
497.41	1346.88
497.513	1420.88
497.616	1232.88
497.719	1237.88
497.823	1260.88
497.926	1236.88
498.029	1260.88
498.132	1266.88
498.235	1333.88
498.338	1320.88
498.441	1416.88
498.544	1364.88
498.647	1382.88
498.75	1492.88
498.853	1615.88
498.956	1408.88
499.059	1607.88
499.163	1504.88
499.266	1544.88
499.369	1542.88
499.471	1615.88
499.574	1714.88
499.677	1705.88
499.78	1760.88
499.883	1824.88
499.986	1883.88
500.089	1884.88
500.192	1939.88
500.295	1913.88
500.398	1935.88
500.501	1913.88
500.604	1819.88
500.707	1802.88
500.809	1848.88
500.912	1877.88
501.015	1791.88
501.118	1666.88
501.221	1673.88
501.324	1554.88
501.426	1580.88
501.529	1475.88
501.632	1464.88
501.735	1335.88
501.837	1356.88
501.94	1364.88
502.043	1307.88
502.146	1358.88
502.248	1247.88
502.351	1212.88
502.454	1298.88
502.557	1189.88
502.659	1199.88
502.762	1153.88
502.865	1169.88
502.967	1109.88
503.07	1154.88
503.173	1224.88
503.275	1144.88
503.378	1079.88
503.48	1113.88
503.583	1183.88
503.686	1139.88
503.788	1338.88
503.891	1139.88
503.993	1253.88
504.096	1067.88
504.198	1161.88
504.301	1052.88
504.403	1054.88
504.506	1092.88
504.608	1041.88
504.711	1038.88
504.813	1168.88
504.916	1083.88
505.018	1055.88
505.121	1036.88
505.223	1046.88
505.326	1003.88
505.428	1107.88
505.531	1022.88
505.633	949.88
505.735	931.88
505.838	971.88
505.94	973.88
506.042	944.88
506.145	957.88
506.247	981.88
506.35	919.88
506.452	1043.88
506.554	1014.88
506.656	979.88
506.759	949.88
506.861	1000.88
506.963	951.88
507.066	949.88
507.168	1040.88
507.27	910.88
507.372	916.88
507.475	944.88
507.577	921.88
507.679	894.88
507.781	900.88
507.883	957.88
507.986	908.88
508.088	916.88
508.19	942.88
508.292	930.88
508.394	930.88
508.496	890.88
508.598	918.88
508.701	840.88
508.803	940.88
508.905	874.88
509.007	876.88
509.109	947.88
509.211	926.88
509.313	812.88
509.415	892.88
509.517	910.88
509.619	812.88
509.721	931.88
509.823	871.88
509.925	994.88
510.027	852.88
510.129	892.88
510.231	887.88
510.333	837.88
510.435	896.88
510.537	906.88
510.639	874.88
510.741	844.88
510.843	933.88
510.945	838.88
511.047	900.88
511.148	843.88
511.25	831.88
511.352	872.88
511.454	869.88
511.556	895.88
511.658	868.88
511.76	961.88
511.861	990.88
511.963	856.88
512.065	864.88
512.167	857.88
512.268	985.88
512.37	948.88
512.472	890.88
512.574	897.88
512.676	973.88
512.777	894.88
512.879	852.88
512.981	832.88
513.082	923.88
513.184	820.88
513.286	1195.88
513.387	960.88
513.489	1023.88
513.591	938.88
513.692	985.88
513.794	981.88
513.896	812.88
513.997	837.88
514.099	865.88
514.2	868.88
514.302	881.88
514.404	936.88
514.505	876.88
514.607	944.88
514.708	923.88
514.81	932.88
514.911	947.88
515.013	1029.88
515.114	986.88
515.216	915.88
515.317	974.88
515.419	929.88
515.52	930.88
515.622	953.88
515.723	1030.88
515.825	1031.88
515.926	977.88
516.027	992.88
516.129	952.88
516.23	935.88
516.332	1032.88
516.433	980.88
516.534	1000.88
516.636	1009.88
516.737	1015.88
516.838	1802.88
516.94	1113.88
517.041	1102.88
517.142	1125.88
517.244	1177.88
517.345	1112.88
517.446	1098.88
517.547	1160.88
517.649	1135.88
517.75	1132.88
517.851	1076.88
517.952	1325.88
518.054	1119.88
518.155	1233.88
518.256	1109.88
518.357	1223.88
518.458	1067.88
518.56	1050.88
518.661	1125.88
518.762	1100.88
518.863	1154.88
518.964	1179.88
519.065	1048.88
519.166	1038.88
519.268	1039.88
519.369	1250.88
519.47	1081.88
519.571	1088.88
519.672	1019.88
519.773	1051.88
519.874	1058.88
519.975	1148.88
520.076	1056.88
520.177	1132.88
520.278	1105.88
520.379	1089.88
520.48	951.88
520.581	1030.88
520.682	990.88
520.783	998.88
520.884	1072.88
520.985	1096.88
521.086	1070.88
521.187	1089.88
521.288	1059.88
521.389	1090.88
521.489	1013.88
521.59	1033.88
521.691	1035.88
521.792	1009.88
521.893	1160.88
521.994	1127.88
522.095	1077.88
522.195	1091.88
522.296	1156.88
522.397	1148.88
522.498	1107.88
522.599	1076.88
522.699	1112.88
522.8	1109.88
522.901	1251.88
523.002	1084.88
523.102	1258.88
523.203	1139.88
523.304	1267.88
523.405	1091.88
523.505	1110.88
523.606	1118.88
523.707	1142.88
523.807	1164.88
523.908	1165.88
524.009	1253.88
524.109	1144.88
524.21	1172.88
524.31	1222.88
524.411	1227.88
524.512	1360.88
524.612	1143.88
524.713	1305.88
524.813	1170.88
524.914	1314.88
525.014	5735.88
525.115	1524.88
525.216	1167.88
525.316	1186.88
525.417	1190.88
525.517	1183.88
525.618	1076.88
525.718	1099.88
525.819	1067.88
525.919	1141.88
526.019	1087.88
526.12	1152.88
526.22	1068.88
526.321	1035.88
526.421	976.88
526.522	1060.88
526.622	973.88
526.722	984.88
526.823	1099.88
526.923	1074.88
527.023	1121.88
527.124	1074.88
527.224	1168.88
527.324	1027.88
527.425	1130.88
527.525	981.88
527.625	1064.88
527.726	1085.88
527.826	1189.88
527.926	1073.88
528.026	1105.88
528.127	1131.88
528.227	1147.88
528.327	1166.88
528.427	1198.88
528.528	1205.88
528.628	1172.88
528.728	1227.88
528.828	1223.88
528.928	1256.88
529.029	1163.88
529.129	1211.88
529.229	1237.88
529.329	1189.88
529.429	1264.88
529.529	1208.88
529.629	1154.88
529.729	1183.88
529.829	1194.88
529.93	1056.88
530.03	1116.88
530.13	1106.88
530.23	1044.88
530.33	1182.88
530.43	1047.88
530.53	1058.88
530.63	1037.88
530.73	1018.88
530.83	919.88
530.93	925.88
531.03	1023.88
531.13	1056.88
531.23	995.88
531.33	1019.88
531.429	1009.88
531.529	1051.88
531.629	1090.88
531.729	1005.88
531.829	972.88
531.929	972.88
532.029	1106.88
532.129	985.88
532.229	1015.88
532.328	1059.88
532.428	952.88
532.528	951.88
532.628	1003.88
532.728	1002.88
532.827	961.88
532.927	1124.88
533.027	1056.88
533.127	1178.88
533.227	1104.88
533.326	1168.88
533.426	1072.88
533.526	1099.88
533.625	1190.88
533.725	1240.88
533.825	1027.88
533.924	1009.88
534.024	867.88
534.124	897.88
534.223	1000.88
534.323	1317.88
534.423	974.88
534.522	1047.88
534.622	962.88
534.722	903.88
534.821	950.88
534.921	1024.88
535.02	887.88
535.12	1004.88
535.219	1081.88
535.319	1023.88
535.419	1021.88
535.518	1023.88
535.618	998.88
535.717	982.88
535.817	903.88
535.916	873.88
536.016	1011.88
536.115	893.88
536.215	902.88
536.314	848.88
536.413	827.88
536.513	887.88
536.612	880.88
536.712	769.88
536.811	923.88
536.91	804.88
537.01	816.88
537.109	927.88
537.209	858.88
537.308	797.88
537.407	810.88
537.507	896.88
537.606	831.88
537.705	871.88
537.805	906.88
537.904	769.88
538.003	882.88
538.102	984.88
538.202	899.88
538.301	949.88
538.4	983.88
538.499	960.88
538.599	924.88
538.698	1150.88
538.797	953.88
538.896	997.88
538.995	991.88
539.095	951.88
539.194	1050.88
539.293	934.88
539.392	992.88
539.491	821.88
539.59	874.88
539.689	1042.88
539.789	909.88
539.888	777.88
539.987	761.88
540.086	860.88
540.185	848.88
540.284	922.88
540.383	943.88
540.482	868.88
540.581	921.88
540.68	971.88
540.779	896.88
540.878	948.88
540.977	1071.88
541.076	987.88
541.175	1001.88
541.274	1199.88
541.373	1063.88
541.472	1038.88
541.571	922.88
541.67	2071.88
541.769	1099.88
541.868	1040.88
541.966	1035.88
542.065	960.88
542.164	969.88
542.263	919.88
542.362	969.88
542.461	984.88
542.56	965.88
542.658	977.88
542.757	874.88
542.856	866.88
542.955	877.88
543.054	832.88
543.152	946.88
543.251	942.88
543.35	1011.88
543.449	910.88
543.547	952.88
543.646	937.88
543.745	963.88
543.843	1057.88
543.942	996.88
544.041	960.88
544.14	997.88
544.238	1032.88
544.337	1168.88
544.436	992.88
544.534	1165.88
544.633	1003.88
544.731	1015.88
544.83	1060.88
544.929	1007.88
545.027	1007.88
545.126	988.88
545.224	1038.88
545.323	958.88
545.421	999.88
545.52	1041.88
545.619	1019.88
545.717	936.88
545.816	1147.88
545.914	1051.88
546.013	1180.88
546.111	1196.88
546.209	983.88
546.308	962.88
546.406	1007.88
546.505	1074.88
546.603	993.88
546.702	947.88
546.8	1004.88
546.899	946.88
546.997	1073.88
547.095	1124.88
547.194	1003.88
547.292	958.88
547.39	1130.88
547.489	967.88
547.587	1211.88
547.685	1049.88
547.784	1189.88
547.882	1005.88
547.98	959.88
548.079	1057.88
548.177	962.88
548.275	943.88
548.373	1152.88
548.472	997.88
548.57	1034.88
548.668	1123.88
548.766	935.88
548.864	1077.88
548.963	1010.88
549.061	1114.88
549.159	943.88
549.257	1010.88
549.355	996.88
549.454	956.88
549.552	1009.88
549.65	1057.88
549.748	906.88
549.846	959.88
549.944	1003.88
550.042	939.88
550.14	952.88
550.238	1043.88
550.336	895.88
550.434	875.88
550.532	933.88
550.631	1011.88
550.729	1010.88
550.827	1022.88
550.925	994.88
551.023	916.88
551.121	890.88
551.218	975.88
551.316	841.88
551.414	822.88
551.512	840.88
551.61	848.88
551.708	869.88
551.806	951.88
551.904	837.88
552.002	824.88
552.1	929.88
552.198	899.88
552.296	989.88
552.393	1081.88
552.491	1110.88
552.589	1047.88
552.687	1024.88
552.785	1105.88
552.882	1093.88
552.98	1182.88
553.078	1164.88
553.176	1078.88
553.274	923.88
553.371	1053.88
553.469	1023.88
553.567	967.88
553.665	1013.88
553.762	1378.88
553.86	1057.88
553.958	1043.88
554.055	1086.88
554.153	1040.88
554.251	967.88
554.348	1023.88
554.446	943.88
554.544	962.88
554.641	1252.88
554.739	953.88
554.837	921.88
554.934	963.88
555.032	989.88
555.129	898.88
555.227	1180.88
555.324	5289.88
555.422	1314.88
555.519	956.88
555.617	1046.88
555.715	847.88
555.812	2275.88
555.91	966.88
556.007	952.88
556.105	851.88
556.202	915.88
556.299	855.88
556.397	821.88
556.494	867.88
556.592	912.88
556.689	904.88
556.787	902.88
556.884	941.88
556.981	919.88
557.079	903.88
557.176	873.88
557.273	910.88
557.371	964.88
557.468	956.88
557.566	941.88
557.663	872.88
557.76	887.88
557.857	963.88
557.955	901.88
558.052	943.88
558.149	1061.88
558.247	1024.88
558.344	904.88
558.441	906.88
558.538	895.88
558.636	913.88
558.733	918.88
558.83	933.88
558.927	905.88
559.024	918.88
559.122	910.88
559.219	874.88
559.316	897.88
559.413	1003.88
559.51	836.88
559.607	838.88
559.704	963.88
559.801	930.88
559.899	863.88
559.996	1097.88
560.093	969.88
560.19	854.88
560.287	937.88
560.384	1030.88
560.481	892.88
560.578	869.88
560.675	886.88
560.772	939.88
560.869	905.88
560.966	1078.88
561.063	850.88
561.16	934.88
561.257	968.88
561.354	906.88
561.451	889.88
561.548	913.88
561.645	1102.88
561.742	886.88
561.838	888.88
561.935	958.88
562.032	888.88
562.129	900.88
562.226	938.88
562.323	867.88
562.42	939.88
562.516	897.88
562.613	865.88
562.71	844.88
562.807	1480.88
562.904	895.88
563	883.88
563.097	869.88
563.194	943.88
563.291	836.88
563.387	839.88
563.484	960.88
563.581	875.88
563.678	811.88
563.774	1237.88
563.871	906.88
563.968	837.88
564.064	895.88
564.161	863.88
564.258	839.88
564.354	928.88
564.451	975.88
564.548	923.88
564.644	902.88
564.741	935.88
564.837	823.88
564.934	898.88
565.031	920.88
565.127	873.88
565.224	915.88
565.32	1024.88
565.417	903.88
565.513	908.88
565.61	974.88
565.706	1020.88
565.803	1015.88
565.899	910.88
565.996	1056.88
566.092	932.88
566.189	926.88
566.285	1042.88
566.382	946.88
566.478	937.88
566.574	1092.88
566.671	1013.88
566.767	970.88
566.864	992.88
566.96	1071.88
567.056	961.88
567.153	1210.88
567.249	1119.88
567.345	1068.88
567.442	1050.88
567.538	1069.88
567.634	1062.88
567.731	948.88
567.827	1081.88
567.923	1078.88
568.019	866.88
568.116	839.88
568.212	893.88
568.308	936.88
568.404	871.88
568.501	874.88
568.597	840.88
568.693	779.88
568.789	1355.88
568.885	762.88
568.982	802.88
569.078	789.88
569.174	849.88
569.27	692.88
569.366	810.88
569.462	763.88
569.558	710.88
569.655	718.88
569.751	713.88
569.847	722.88
569.943	704.88
570.039	676.88
570.135	1032.88
570.231	762.88
570.327	877.88
570.423	804.88
570.519	749.88
570.615	770.88
570.711	843.88
570.807	794.88
570.903	739.88
570.999	856.88
571.095	814.88
571.191	765.88
571.287	818.88
571.383	811.88
571.479	783.88
571.574	911.88
571.67	753.88
571.766	888.88
571.862	792.88
571.958	760.88
572.054	778.88
572.15	677.88
572.246	684.88
572.341	756.88
572.437	699.88
572.533	738.88
572.629	619.88
572.725	702.88
572.82	679.88
572.916	752.88
573.012	653.88
573.108	770.88
573.203	638.88
573.299	629.88
573.395	568.88
573.49	592.88
573.586	581.88
573.682	572.88
573.778	761.88
573.873	546.88
573.969	594.88
574.065	631.88
574.16	588.88
574.256	591.88
574.351	704.88
574.447	592.88
574.543	599.88
574.638	756.88
574.734	678.88
574.829	788.88
574.925	630.88
575.02	663.88
575.116	608.88
575.212	656.88
575.307	783.88
575.403	589.88
575.498	641.88
575.594	607.88
575.689	633.88
575.784	641.88
575.88	643.88
575.975	690.88
576.071	606.88
576.166	561.88
576.262	655.88
576.357	595.88
576.452	760.88
576.548	689.88
576.643	599.88
576.739	664.88
576.834	645.88
576.929	616.88
577.025	755.88
577.12	580.88
577.215	532.88
577.311	570.88
577.406	667.88
577.501	743.88
577.597	529.88
577.692	653.88
577.787	722.88
577.882	561.88
577.978	562.88
578.073	601.88
578.168	525.88
578.263	517.88
578.358	562.88
578.454	520.88
578.549	501.88
578.644	499.88
578.739	588.88
578.834	482.88
578.929	475.88
579.025	489.88
579.12	545.88
579.215	718.88
579.31	712.88
579.405	469.88
579.5	549.88
579.595	536.88
579.69	445.88
579.785	467.88
579.88	490.88
579.975	497.88
580.07	441.88
580.165	493.88
580.26	613.88
580.355	536.88
580.45	590.88
580.545	523.88
580.64	519.88
580.735	572.88
580.83	599.88
580.925	448.88
581.02	447.88
581.115	452.88
581.21	437.88
581.305	483.88
581.4	520.88
581.495	517.88
581.589	479.88
581.684	452.88
581.779	567.88
581.874	481.88
581.969	565.88
582.064	472.88
582.158	443.88
582.253	436.88
582.348	467.88
582.443	464.88
582.537	462.88
582.632	597.88
582.727	536.88
582.822	435.88
582.916	438.88
583.011	497.88
583.106	453.88
583.201	406.88
583.295	518.88
583.39	391.88
583.485	346.88
583.579	1905.88
583.674	587.88
583.769	619.88
583.863	434.88
583.958	408.88
584.052	363.88
584.147	396.88
584.242	458.88
584.336	393.88
584.431	542.88
584.525	448.88
584.62	542.88
584.714	456.88
584.809	469.88
584.903	442.88
584.998	460.88
585.092	396.88
585.187	397.88
585.281	403.88
585.376	416.88
585.47	454.88
585.565	403.88
585.659	306.88
585.754	414.88
585.848	402.88
585.942	365.88
586.037	396.88
586.131	2257.88
586.226	562.88
586.32	490.88
586.414	312.88
586.509	451.88
586.603	451.88
586.697	410.88
586.792	317.88
586.886	344.88
586.98	486.88
587.075	407.88
587.169	340.88
587.263	547.88
587.357	385.88
587.452	355.88
587.546	491.88
587.64	337.88
587.734	352.88
587.829	374.88
587.923	342.88
588.017	313.88
588.111	308.88
588.205	436.88
588.3	323.88
588.394	279.88
588.488	306.88
588.582	330.88
588.676	352.88
588.77	381.88
588.864	440.88
588.958	351.88
589.052	326.88
589.147	427.88
589.241	335.88
589.335	354.88
589.429	433.88
589.523	376.88
589.617	374.88
589.711	432.88
589.805	411.88
589.899	456.88
589.993	395.88
590.087	290.88
590.181	284.88
590.275	405.88
590.369	309.88
590.462	262.88
590.556	318.88
590.65	277.88
590.744	281.88
590.838	278.88
590.932	354.88
591.026	370.88
591.12	434.88
591.214	379.88
591.307	296.88
591.401	347.88
591.495	442.88
591.589	314.88
591.683	289.88
591.777	351.88
591.87	656.88
591.964	381.88
592.058	314.88
592.152	419.88
592.245	332.88
592.339	395.88
592.433	485.88
592.527	383.88
592.62	300.88
592.714	383.88
592.808	396.88
592.901	374.88
592.995	332.88
593.089	589.88
593.182	374.88
593.276	305.88
593.37	370.88
593.463	324.88
593.557	325.88
593.65	372.88
593.744	316.88
593.837	404.88
593.931	348.88
594.025	2264.88
594.118	560.88
594.212	388.88
594.305	355.88
594.399	388.88
594.492	651.88
594.586	409.88
594.679	314.88
594.773	315.88
594.866	426.88
594.96	347.88
595.053	319.88
595.146	347.88
595.24	306.88
595.333	250.88
595.427	283.88
595.52	319.88
595.614	420.88
595.707	339.88
595.8	378.88
595.894	334.88
595.987	247.88
596.08	309.88
596.174	597.88
596.267	405.88
596.36	480.88
596.454	413.88
596.547	384.88
596.64	345.88
596.733	278.88
596.827	341.88
596.92	359.88
597.013	283.88
597.106	245.88
597.2	258.88
597.293	261.88
597.386	480.88
597.479	401.88
597.572	372.88
597.666	245.88
597.759	248.88
597.852	393.88
597.945	278.88
598.038	273.88
598.131	273.88
598.224	269.88
598.317	276.88
598.411	330.88
598.504	343.88
598.597	338.88
598.69	265.88
598.783	346.88
598.876	325.88
598.969	314.88
599.062	279.88
599.155	342.88
599.248	273.88
599.341	331.88
599.434	303.88
599.527	338.88
599.62	262.88
599.713	274.88
599.806	337.88
599.899	418.88
599.991	323.88
600.084	475.88
600.177	298.88
600.27	328.88
600.363	396.88
600.456	321.88
600.549	383.88
600.642	253.88
600.734	291.88
600.827	253.88
600.92	403.88
601.013	335.88
601.106	389.88
601.199	311.88
601.291	267.88
601.384	317.88
601.477	528.88
601.57	379.88
601.662	277.88
601.755	357.88
601.848	356.88
601.94	272.88
602.033	401.88
602.126	313.88
602.219	328.88
602.311	378.88
602.404	371.88
602.497	289.88
602.589	314.88
602.682	421.88
602.774	319.88
602.867	322.88
602.96	331.88
603.052	333.88
603.145	294.88
603.237	339.88
603.33	331.88
603.422	417.88
603.515	299.88
603.608	351.88
603.7	313.88
603.793	295.88
603.885	353.88
603.978	258.88
604.07	284.88
604.163	299.88
604.255	324.88
604.347	206.88
604.44	245.88
604.532	370.88
604.625	242.88
604.717	267.88
604.81	374.88
604.902	290.88
604.994	233.88
605.087	332.88
605.179	281.88
605.271	300.88
605.364	354.88
605.456	354.88
605.548	310.88
605.641	325.88
605.733	312.88
605.825	328.88
605.918	258.88
606.01	452.88
606.102	676.88
606.194	376.88
606.287	503.88
606.379	303.88
606.471	317.88
606.563	397.88
606.655	357.88
606.748	352.88
606.84	326.88
606.932	383.88
607.024	303.88
607.116	260.88
607.208	306.88
607.301	322.88
607.393	300.88
607.485	336.88
607.577	323.88
607.669	358.88
607.761	409.88
607.853	485.88
607.945	259.88
608.037	332.88
608.129	295.88
608.221	274.88
608.313	303.88
608.405	389.88
608.497	300.88
608.589	243.88
608.681	328.88
608.773	342.88
608.865	308.88
608.957	391.88
609.049	275.88
609.141	352.88
609.233	344.88
609.325	241.88
609.417	258.88
609.509	381.88
609.601	433.88
609.693	367.88
609.784	288.88
609.876	347.88
609.968	346.88
610.06	2080.88
610.152	542.88
610.244	929.88
610.335	360.88
610.427	357.88
610.519	312.88
610.611	306.88
610.702	328.88
610.794	333.88
610.886	381.88
610.978	383.88
611.069	712.88
611.161	350.88
611.253	386.88
611.344	321.88
611.436	243.88
611.528	324.88
611.62	289.88
611.711	265.88
611.803	252.88
611.894	295.88
611.986	229.88
612.078	277.88
612.169	269.88
612.261	294.88
612.352	233.88
612.444	199.88
612.536	338.88
612.627	241.88
612.719	198.88
612.81	225.88
612.902	199.88
612.993	242.88
613.085	289.88
613.176	175.88
613.268	224.88
613.359	223.88
613.451	216.88
613.542	188.88
613.634	198.88
613.725	269.88
613.816	281.88
613.908	178.88
613.999	218.88
614.091	120.88
614.182	116.88
614.273	259.88
614.365	140.88
614.456	76.88
614.547	181.88
614.639	96.88
614.73	103.88
614.821	225.88
614.913	108.88
615.004	62.88
615.095	47.88
615.187	141.88
