Data from sinsal_HRC06701__31__92.txt Node

Date: Thu Apr 18 01:41:34 CDT 2024
User: Estudiantes 2
Spectrometer: HR+C0670
Trigger mode: 4
Integration Time (sec): 1.000000E0
Scans to average: 1
Electric dark correction enabled: true
Nonlinearity correction enabled: false
Boxcar width: 0
XAxis mode: Wavelengths
Number of Pixels in Spectrum: 2048
>>>>>Begin Spectral Data<<<<<
407.81	-122.25
407.921	-122.25
408.032	-122.25
408.143	-115.25
408.254	-104.25
408.365	46.75
408.476	194.75
408.587	-14.25
408.699	23.75
408.81	-21.25
408.921	-43.25
409.032	19.75
409.143	8.75
409.254	-7.25
409.365	103.75
409.476	-28.25
409.587	18.75
409.698	39.75
409.809	71.75
409.92	-26.25
410.031	-22.25
410.142	77.75
410.253	25.75
410.364	18.75
410.475	363.75
410.585	1562.75
410.696	1721.75
410.807	1688.75
410.918	1658.75
411.029	1773.75
411.14	1736.75
411.251	1723.75
411.362	1761.75
411.472	1783.75
411.583	1752.75
411.694	1794.75
411.805	1705.75
411.916	1841.75
412.026	1854.75
412.137	1822.75
412.248	1821.75
412.359	1785.75
412.47	1670.75
412.58	1744.75
412.691	1792.75
412.802	1712.75
412.912	1693.75
413.023	1738.75
413.134	1657.75
413.245	1787.75
413.355	1766.75
413.466	1642.75
413.577	1634.75
413.687	1764.75
413.798	1633.75
413.909	1745.75
414.019	1731.75
414.13	1768.75
414.24	1707.75
414.351	1793.75
414.462	1921.75
414.572	1777.75
414.683	1797.75
414.793	1799.75
414.904	2035.75
415.014	1743.75
415.125	1738.75
415.235	1777.75
415.346	1868.75
415.456	1873.75
415.567	1692.75
415.677	1759.75
415.788	1753.75
415.898	1730.75
416.009	1685.75
416.119	1732.75
416.23	1770.75
416.34	1670.75
416.45	1803.75
416.561	2197.75
416.671	1762.75
416.782	1679.75
416.892	1754.75
417.002	1774.75
417.113	1756.75
417.223	1855.75
417.333	1737.75
417.444	1810.75
417.554	1907.75
417.664	1837.75
417.775	1720.75
417.885	1856.75
417.995	1874.75
418.106	1948.75
418.216	1866.75
418.326	2004.75
418.436	1913.75
418.547	1960.75
418.657	1899.75
418.767	2021.75
418.877	1967.75
418.987	2012.75
419.098	2012.75
419.208	1961.75
419.318	2061.75
419.428	2069.75
419.538	1894.75
419.648	1988.75
419.759	2091.75
419.869	2025.75
419.979	1982.75
420.089	2057.75
420.199	1996.75
420.309	1993.75
420.419	2027.75
420.529	1983.75
420.639	2209.75
420.749	2038.75
420.859	2132.75
420.969	2090.75
421.079	2205.75
421.189	2200.75
421.299	2057.75
421.409	2026.75
421.519	2203.75
421.629	2186.75
421.739	2076.75
421.849	2115.75
421.959	2108.75
422.069	2154.75
422.179	2060.75
422.289	2111.75
422.399	2232.75
422.509	2204.75
422.619	4058.75
422.729	2410.75
422.838	2124.75
422.948	2386.75
423.058	2212.75
423.168	2231.75
423.278	2297.75
423.388	2361.75
423.498	2380.75
423.607	2275.75
423.717	2625.75
423.827	2521.75
423.937	2423.75
424.046	2558.75
424.156	2519.75
424.266	2377.75
424.376	2644.75
424.485	2538.75
424.595	2457.75
424.705	2541.75
424.815	2530.75
424.924	2801.75
425.034	2594.75
425.144	2529.75
425.253	2511.75
425.363	2578.75
425.473	2597.75
425.582	2449.75
425.692	2554.75
425.801	2595.75
425.911	2745.75
426.021	2640.75
426.13	2727.75
426.24	2796.75
426.349	2741.75
426.459	2652.75
426.568	2695.75
426.678	2778.75
426.787	2675.75
426.897	2674.75
427.006	2769.75
427.116	2750.75
427.225	2790.75
427.335	2793.75
427.444	2790.75
427.554	2777.75
427.663	2784.75
427.773	2786.75
427.882	2825.75
427.992	2795.75
428.101	2802.75
428.21	2844.75
428.32	2985.75
428.429	2792.75
428.539	3075.75
428.648	2979.75
428.757	2865.75
428.867	2971.75
428.976	3102.75
429.085	2995.75
429.195	2999.75
429.304	3023.75
429.413	3112.75
429.523	3015.75
429.632	2995.75
429.741	3170.75
429.85	3001.75
429.96	3069.75
430.069	3053.75
430.178	3036.75
430.287	3330.75
430.397	3179.75
430.506	3108.75
430.615	3043.75
430.724	3212.75
430.833	3204.75
430.943	3140.75
431.052	3176.75
431.161	3145.75
431.27	3219.75
431.379	3271.75
431.488	3513.75
431.597	3338.75
431.706	3436.75
431.816	3445.75
431.925	3381.75
432.034	3308.75
432.143	3470.75
432.252	3376.75
432.361	3304.75
432.47	3330.75
432.579	3394.75
432.688	3320.75
432.797	3449.75
432.906	3385.75
433.015	3393.75
433.124	3724.75
433.233	3503.75
433.342	3391.75
433.451	3397.75
433.56	3364.75
433.669	3391.75
433.778	3424.75
433.886	3466.75
433.995	3462.75
434.104	3602.75
434.213	3502.75
434.322	3574.75
434.431	3584.75
434.54	3680.75
434.649	3953.75
434.757	3729.75
434.866	3709.75
434.975	3736.75
435.084	3613.75
435.193	3585.75
435.301	3804.75
435.41	3799.75
435.519	3799.75
435.628	3321.75
435.737	3321.75
435.845	3239.75
435.954	3228.75
436.063	3278.75
436.171	3234.75
436.28	3273.75
436.389	3316.75
436.498	3127.75
436.606	3189.75
436.715	3363.75
436.823	3112.75
436.932	3134.75
437.041	2984.75
437.149	3173.75
437.258	3015.75
437.367	2913.75
437.475	3123.75
437.584	3205.75
437.692	3007.75
437.801	4382.75
437.91	3072.75
438.018	2922.75
438.127	2943.75
438.235	2999.75
438.344	2964.75
438.452	3051.75
438.561	2970.75
438.669	2876.75
438.778	2863.75
438.886	2885.75
438.995	2899.75
439.103	2872.75
439.212	3008.75
439.32	2930.75
439.428	2851.75
439.537	2970.75
439.645	3078.75
439.754	2951.75
439.862	2892.75
439.97	2973.75
440.079	2964.75
440.187	2902.75
440.295	3173.75
440.404	3018.75
440.512	3050.75
440.62	3035.75
440.729	3064.75
440.837	3092.75
440.945	3732.75
441.054	3155.75
441.162	3033.75
441.27	3298.75
441.378	3275.75
441.487	3314.75
441.595	3560.75
441.703	3363.75
441.811	3178.75
441.92	3225.75
442.028	3194.75
442.136	3147.75
442.244	3143.75
442.352	3204.75
442.461	3069.75
442.569	3087.75
442.677	3140.75
442.785	3088.75
442.893	3095.75
443.001	3130.75
443.109	3084.75
443.217	3114.75
443.325	3039.75
443.434	3624.75
443.542	3393.75
443.65	3196.75
443.758	3316.75
443.866	3287.75
443.974	3506.75
444.082	3376.75
444.19	3531.75
444.298	3476.75
444.406	3609.75
444.514	3554.75
444.622	3656.75
444.73	3608.75
444.838	3624.75
444.946	3588.75
445.054	3490.75
445.161	3493.75
445.269	3267.75
445.377	3346.75
445.485	3447.75
445.593	3286.75
445.701	3397.75
445.809	3373.75
445.917	3282.75
446.025	3177.75
446.132	3278.75
446.24	3322.75
446.348	3171.75
446.456	3076.75
446.564	3153.75
446.671	3229.75
446.779	3183.75
446.887	3109.75
446.995	3184.75
447.102	3189.75
447.21	3213.75
447.318	3180.75
447.426	3132.75
447.533	3317.75
447.641	4136.75
447.749	3241.75
447.856	3176.75
447.964	3211.75
448.072	3297.75
448.179	3027.75
448.287	3234.75
448.395	3232.75
448.502	3080.75
448.61	3129.75
448.718	3166.75
448.825	3145.75
448.933	3095.75
449.04	3181.75
449.148	3175.75
449.256	3241.75
449.363	3306.75
449.471	3302.75
449.578	3346.75
449.686	3194.75
449.793	3406.75
449.901	3336.75
450.008	3432.75
450.116	3458.75
450.223	3351.75
450.331	3506.75
450.438	3585.75
450.546	3538.75
450.653	3644.75
450.76	3721.75
450.868	3618.75
450.975	3756.75
451.083	3661.75
451.19	3697.75
451.297	3660.75
451.405	3698.75
451.512	3635.75
451.619	3738.75
451.727	3848.75
451.834	3726.75
451.941	3668.75
452.049	3766.75
452.156	3831.75
452.263	3866.75
452.371	3795.75
452.478	3765.75
452.585	3830.75
452.692	3844.75
452.8	3944.75
452.907	3975.75
453.014	3882.75
453.121	3882.75
453.229	3919.75
453.336	3976.75
453.443	3955.75
453.55	3917.75
453.657	3951.75
453.765	3986.75
453.872	3988.75
453.979	3951.75
454.086	3956.75
454.193	4048.75
454.3	3912.75
454.407	4059.75
454.514	4079.75
454.621	4041.75
454.729	3933.75
454.836	4109.75
454.943	4066.75
455.05	4154.75
455.157	4253.75
455.264	4126.75
455.371	4196.75
455.478	4180.75
455.585	5379.75
455.692	4386.75
455.799	4379.75
455.906	4226.75
456.013	4176.75
456.12	4235.75
456.227	4210.75
456.334	4336.75
456.44	4505.75
456.547	4287.75
456.654	4392.75
456.761	4329.75
456.868	4425.75
456.975	4449.75
457.082	4335.75
457.189	4329.75
457.296	4433.75
457.402	4482.75
457.509	4421.75
457.616	4565.75
457.723	4732.75
457.83	4551.75
457.936	4594.75
458.043	4992.75
458.15	4683.75
458.257	4736.75
458.363	4970.75
458.47	4824.75
458.577	5029.75
458.684	4953.75
458.79	5204.75
458.897	5158.75
459.004	5307.75
459.11	5272.75
459.217	5316.75
459.324	5360.75
459.43	5439.75
459.537	5744.75
459.644	5526.75
459.75	5636.75
459.857	5903.75
459.964	5754.75
460.07	5864.75
460.177	5882.75
460.283	5890.75
460.39	6023.75
460.496	6012.75
460.603	5953.75
460.71	5921.75
460.816	5870.75
460.923	5908.75
461.029	5857.75
461.136	5948.75
461.242	5810.75
461.349	5879.75
461.455	6097.75
461.562	6148.75
461.668	6122.75
461.774	5984.75
461.881	6156.75
461.987	6135.75
462.094	6145.75
462.2	6326.75
462.307	6373.75
462.413	6307.75
462.519	6535.75
462.626	6912.75
462.732	6763.75
462.838	7130.75
462.945	7168.75
463.051	7279.75
463.157	7223.75
463.264	7027.75
463.37	6819.75
463.476	6705.75
463.583	6562.75
463.689	6604.75
463.795	6439.75
463.901	6592.75
464.008	6692.75
464.114	6574.75
464.22	6456.75
464.326	6429.75
464.433	6290.75
464.539	6351.75
464.645	6020.75
464.751	6210.75
464.857	5932.75
464.963	5624.75
465.07	5627.75
465.176	5313.75
465.282	5336.75
465.388	5174.75
465.494	4972.75
465.6	4990.75
465.706	4792.75
465.812	4671.75
465.918	4790.75
466.024	4587.75
466.131	4608.75
466.237	4579.75
466.343	4358.75
466.449	4292.75
466.555	4312.75
466.661	4242.75
466.767	4247.75
466.873	4136.75
466.979	4342.75
467.085	4105.75
467.191	4284.75
467.296	4117.75
467.402	4068.75
467.508	4010.75
467.614	4168.75
467.72	4009.75
467.826	3919.75
467.932	3976.75
468.038	3871.75
468.144	3824.75
468.25	3834.75
468.355	3875.75
468.461	3845.75
468.567	3749.75
468.673	3850.75
468.779	3688.75
468.885	3700.75
468.99	3708.75
469.096	3699.75
469.202	3876.75
469.308	3752.75
469.413	3748.75
469.519	3739.75
469.625	3777.75
469.731	3831.75
469.836	3776.75
469.942	3954.75
470.048	3880.75
470.153	3827.75
470.259	3813.75
470.365	3995.75
470.47	3909.75
470.576	3765.75
470.682	3780.75
470.787	3784.75
470.893	3686.75
470.999	3657.75
471.104	3732.75
471.21	3540.75
471.315	3510.75
471.421	3515.75
471.527	3639.75
471.632	3450.75
471.738	3574.75
471.843	3346.75
471.949	3372.75
472.054	3359.75
472.16	3329.75
472.265	3320.75
472.371	3263.75
472.476	3309.75
472.582	3315.75
472.687	3151.75
472.793	3236.75
472.898	3253.75
473.003	3168.75
473.109	3177.75
473.214	3060.75
473.32	3151.75
473.425	3255.75
473.53	3187.75
473.636	3067.75
473.741	3104.75
473.847	3105.75
473.952	3053.75
474.057	3198.75
474.163	3161.75
474.268	2999.75
474.373	3119.75
474.478	3198.75
474.584	3112.75
474.689	3130.75
474.794	3094.75
474.9	3314.75
475.005	3062.75
475.11	3320.75
475.215	3108.75
475.321	3074.75
475.426	3184.75
475.531	3208.75
475.636	3103.75
475.741	3053.75
475.846	3258.75
475.952	3275.75
476.057	3185.75
476.162	3260.75
476.267	3208.75
476.372	3436.75
476.477	3222.75
476.582	3325.75
476.687	3035.75
476.793	3171.75
476.898	3257.75
477.003	3224.75
477.108	3236.75
477.213	3330.75
477.318	3252.75
477.423	3324.75
477.528	3410.75
477.633	3463.75
477.738	3517.75
477.843	3445.75
477.948	3537.75
478.053	3496.75
478.158	3528.75
478.263	3587.75
478.368	3569.75
478.473	3604.75
478.578	3670.75
478.682	3627.75
478.787	3687.75
478.892	3662.75
478.997	3719.75
479.102	3632.75
479.207	3663.75
479.312	3798.75
479.417	3639.75
479.521	3727.75
479.626	3930.75
479.731	3787.75
479.836	3784.75
479.941	4045.75
480.045	3947.75
480.15	3883.75
480.255	4069.75
480.36	3969.75
480.465	3955.75
480.569	4133.75
480.674	3961.75
480.779	3856.75
480.883	3890.75
480.988	3882.75
481.093	3743.75
481.197	3780.75
481.302	3856.75
481.407	3886.75
481.511	5451.75
481.616	3908.75
481.721	3786.75
481.825	3912.75
481.93	3750.75
482.035	3750.75
482.139	3829.75
482.244	3856.75
482.348	3777.75
482.453	3909.75
482.557	3920.75
482.662	3976.75
482.767	3824.75
482.871	3887.75
482.976	3973.75
483.08	3927.75
483.185	4088.75
483.289	4010.75
483.394	3991.75
483.498	4010.75
483.603	4020.75
483.707	4150.75
483.811	4108.75
483.916	4235.75
484.02	4143.75
484.125	4213.75
484.229	4273.75
484.333	4339.75
484.438	4225.75
484.542	4172.75
484.647	4298.75
484.751	4371.75
484.855	4370.75
484.96	4409.75
485.064	4386.75
485.168	4437.75
485.273	4386.75
485.377	4425.75
485.481	4649.75
485.585	4536.75
485.69	4609.75
485.794	4498.75
485.898	4583.75
486.002	4726.75
486.107	4583.75
486.211	4530.75
486.315	4682.75
486.419	4676.75
486.524	4667.75
486.628	4668.75
486.732	4568.75
486.836	4615.75
486.94	4732.75
487.044	4668.75
487.148	4606.75
487.253	4582.75
487.357	4735.75
487.461	4851.75
487.565	4718.75
487.669	4699.75
487.773	4657.75
487.877	4779.75
487.981	4682.75
488.085	4689.75
488.189	4667.75
488.293	4834.75
488.397	5130.75
488.501	4706.75
488.605	4652.75
488.709	4736.75
488.813	4664.75
488.917	4626.75
489.021	4688.75
489.125	4900.75
489.229	4691.75
489.333	4908.75
489.437	4770.75
489.541	4768.75
489.645	4614.75
489.749	4818.75
489.853	4857.75
489.956	4727.75
490.06	4824.75
490.164	4750.75
490.268	4771.75
490.372	4788.75
490.476	4756.75
490.579	4822.75
490.683	5322.75
490.787	4823.75
490.891	4728.75
490.995	4821.75
491.098	4874.75
491.202	4844.75
491.306	4875.75
491.41	4781.75
491.513	4738.75
491.617	4793.75
491.721	4890.75
491.824	4842.75
491.928	4825.75
492.032	5104.75
492.136	4878.75
492.239	4819.75
492.343	4811.75
492.446	5299.75
492.55	4859.75
492.654	4740.75
492.757	4827.75
492.861	4823.75
492.965	4832.75
493.068	4897.75
493.172	4894.75
493.275	4775.75
493.379	4841.75
493.482	4912.75
493.586	4931.75
493.689	4962.75
493.793	4838.75
493.896	4968.75
494	4901.75
494.103	4974.75
494.207	5139.75
494.31	5185.75
494.414	4992.75
494.517	4862.75
494.621	4771.75
494.724	4921.75
494.828	4791.75
494.931	4777.75
495.034	4830.75
495.138	4927.75
495.241	4803.75
495.345	5375.75
495.448	4970.75
495.551	4745.75
495.655	4841.75
495.758	4775.75
495.861	4807.75
495.965	4902.75
496.068	4965.75
496.171	4836.75
496.274	4841.75
496.378	4921.75
496.481	4867.75
496.584	4826.75
496.687	4995.75
496.791	4896.75
496.894	4922.75
496.997	4927.75
497.1	5011.75
497.204	5050.75
497.307	5021.75
497.41	5229.75
497.513	5226.75
497.616	5141.75
497.719	5294.75
497.823	5297.75
497.926	5413.75
498.029	5499.75
498.132	5567.75
498.235	5655.75
498.338	5713.75
498.441	6008.75
498.544	5937.75
498.647	6195.75
498.75	6423.75
498.853	6550.75
498.956	6633.75
499.059	7091.75
499.163	7049.75
499.266	7340.75
499.369	7477.75
499.471	7673.75
499.574	8163.75
499.677	8336.75
499.78	8822.75
499.883	9167.75
499.986	9573.75
500.089	9866.75
500.192	9929.75
500.295	10184.75
500.398	10152.75
500.501	9967.75
500.604	9822.75
500.707	9467.75
500.809	9162.75
500.912	8753.75
501.015	8444.75
501.118	7913.75
501.221	7593.75
501.324	7255.75
501.426	7080.75
501.529	6743.75
501.632	6516.75
501.735	6364.75
501.837	6080.75
501.94	5997.75
502.043	5707.75
502.146	5695.75
502.248	5430.75
502.351	5375.75
502.454	5284.75
502.557	5107.75
502.659	5146.75
502.762	5016.75
502.865	4754.75
502.967	4628.75
503.07	4732.75
503.173	4615.75
503.275	4483.75
503.378	4546.75
503.48	4458.75
503.583	4437.75
503.686	4398.75
503.788	4569.75
503.891	4406.75
503.993	4649.75
504.096	4356.75
504.198	4499.75
504.301	4364.75
504.403	4421.75
504.506	4304.75
504.608	4219.75
504.711	4211.75
504.813	4130.75
504.916	4082.75
505.018	3948.75
505.121	3774.75
505.223	3894.75
505.326	3729.75
505.428	3820.75
505.531	3735.75
505.633	3679.75
505.735	3572.75
505.838	3548.75
505.94	3575.75
506.042	3627.75
506.145	3486.75
506.247	3564.75
506.35	3540.75
506.452	3485.75
506.554	3455.75
506.656	3418.75
506.759	3357.75
506.861	3375.75
506.963	3313.75
507.066	3465.75
507.168	3409.75
507.27	3319.75
507.372	3277.75
507.475	3298.75
507.577	3310.75
507.679	3354.75
507.781	3156.75
507.883	3284.75
507.986	3194.75
508.088	3198.75
508.19	3217.75
508.292	3240.75
508.394	3158.75
508.496	3097.75
508.598	3101.75
508.701	3171.75
508.803	3096.75
508.905	3104.75
509.007	3204.75
509.109	3264.75
509.211	3122.75
509.313	3112.75
509.415	3024.75
509.517	3070.75
509.619	3060.75
509.721	3158.75
509.823	3118.75
509.925	3162.75
510.027	3076.75
510.129	3049.75
510.231	3062.75
510.333	3064.75
510.435	3029.75
510.537	3064.75
510.639	3172.75
510.741	3068.75
510.843	3044.75
510.945	3063.75
511.047	3101.75
511.148	3064.75
511.25	3010.75
511.352	3077.75
511.454	2920.75
511.556	3018.75
511.658	3059.75
511.76	3139.75
511.861	3177.75
511.963	3064.75
512.065	3090.75
512.167	3046.75
512.268	3292.75
512.37	3144.75
512.472	2996.75
512.574	3136.75
512.676	3172.75
512.777	3035.75
512.879	3017.75
512.981	3100.75
513.082	3020.75
513.184	3066.75
513.286	3536.75
513.387	3132.75
513.489	3217.75
513.591	3192.75
513.692	3178.75
513.794	3174.75
513.896	3061.75
513.997	3035.75
514.099	3178.75
514.2	3238.75
514.302	3212.75
514.404	3160.75
514.505	3171.75
514.607	3326.75
514.708	3221.75
514.81	3257.75
514.911	3343.75
515.013	3291.75
515.114	3322.75
515.216	3258.75
515.317	3417.75
515.419	3352.75
515.52	3463.75
515.622	3483.75
515.723	3383.75
515.825	3590.75
515.926	3576.75
516.027	3450.75
516.129	3581.75
516.23	3652.75
516.332	3661.75
516.433	3700.75
516.534	3777.75
516.636	3785.75
516.737	3763.75
516.838	4676.75
516.94	4097.75
517.041	4068.75
517.142	4329.75
517.244	4380.75
517.345	4378.75
517.446	4340.75
517.547	4480.75
517.649	4384.75
517.75	4411.75
517.851	4349.75
517.952	4578.75
518.054	4368.75
518.155	4396.75
518.256	4258.75
518.357	4279.75
518.458	4081.75
518.56	4102.75
518.661	4008.75
518.762	3945.75
518.863	4088.75
518.964	3992.75
519.065	3852.75
519.166	3798.75
519.268	3778.75
519.369	3999.75
519.47	3705.75
519.571	3786.75
519.672	3628.75
519.773	3558.75
519.874	3684.75
519.975	3592.75
520.076	3596.75
520.177	3731.75
520.278	3656.75
520.379	3563.75
520.48	3498.75
520.581	3516.75
520.682	3579.75
520.783	3580.75
520.884	3622.75
520.985	3622.75
521.086	3513.75
521.187	3503.75
521.288	3397.75
521.389	3522.75
521.489	3518.75
521.59	3427.75
521.691	3464.75
521.792	3514.75
521.893	3525.75
521.994	3576.75
522.095	3470.75
522.195	3523.75
522.296	3593.75
522.397	3596.75
522.498	3543.75
522.599	3427.75
522.699	3523.75
522.8	3519.75
522.901	3477.75
523.002	3492.75
523.102	3741.75
523.203	3478.75
523.304	3644.75
523.405	3457.75
523.505	3551.75
523.606	3530.75
523.707	3551.75
523.807	3538.75
523.908	3477.75
524.009	3594.75
524.109	3579.75
524.21	3550.75
524.31	3571.75
524.411	3720.75
524.512	3686.75
524.612	3573.75
524.713	3717.75
524.813	3619.75
524.914	3751.75
525.014	8303.75
525.115	3937.75
525.216	3473.75
525.316	3578.75
525.417	3636.75
525.517	3452.75
525.618	3514.75
525.718	3563.75
525.819	3466.75
525.919	3521.75
526.019	3512.75
526.12	3554.75
526.22	3459.75
526.321	3463.75
526.421	3463.75
526.522	3356.75
526.622	3393.75
526.722	3473.75
526.823	3422.75
526.923	3483.75
527.023	3626.75
527.124	3359.75
527.224	3484.75
527.324	3365.75
527.425	3500.75
527.525	3353.75
527.625	3403.75
527.726	3455.75
527.826	3518.75
527.926	3467.75
528.026	3573.75
528.127	3470.75
528.227	3477.75
528.327	3550.75
528.427	3454.75
528.528	3538.75
528.628	3583.75
528.728	3462.75
528.828	3529.75
528.928	3547.75
529.029	3480.75
529.129	3412.75
529.229	3472.75
529.329	3539.75
529.429	3514.75
529.529	3573.75
529.629	3540.75
529.729	3410.75
529.829	3493.75
529.93	3471.75
530.03	3469.75
530.13	3403.75
530.23	3345.75
530.33	3337.75
530.43	3336.75
530.53	3440.75
530.63	3304.75
530.73	3199.75
530.83	3208.75
530.93	3278.75
531.03	3189.75
531.13	3324.75
531.23	3321.75
531.33	3331.75
531.429	3342.75
531.529	3317.75
531.629	3215.75
531.729	3244.75
531.829	3265.75
531.929	3299.75
532.029	3365.75
532.129	3223.75
532.229	3308.75
532.328	3249.75
532.428	3224.75
532.528	3229.75
532.628	3124.75
532.728	3203.75
532.827	3231.75
532.927	3306.75
533.027	3225.75
533.127	3369.75
533.227	3221.75
533.326	3196.75
533.426	3155.75
533.526	3340.75
533.625	3243.75
533.725	3357.75
533.825	3239.75
533.924	3103.75
534.024	3018.75
534.124	3083.75
534.223	3114.75
534.323	3435.75
534.423	3081.75
534.522	3111.75
534.622	2971.75
534.722	2962.75
534.821	3135.75
534.921	3049.75
535.02	2932.75
535.12	3171.75
535.219	3072.75
535.319	3063.75
535.419	3108.75
535.518	2956.75
535.618	2921.75
535.717	3014.75
535.817	2885.75
535.916	2759.75
536.016	2870.75
536.115	2857.75
536.215	2776.75
536.314	2751.75
536.413	2778.75
536.513	2810.75
536.612	2747.75
536.712	2793.75
536.811	2692.75
536.91	2584.75
537.01	2679.75
537.109	2745.75
537.209	2676.75
537.308	2675.75
537.407	2749.75
537.507	2658.75
537.606	2695.75
537.705	2777.75
537.805	2660.75
537.904	2583.75
538.003	2716.75
538.102	2742.75
538.202	2628.75
538.301	2704.75
538.4	2709.75
538.499	2649.75
538.599	2754.75
538.698	2895.75
538.797	2654.75
538.896	2766.75
538.995	2713.75
539.095	2561.75
539.194	2816.75
539.293	2655.75
539.392	2598.75
539.491	2558.75
539.59	2600.75
539.689	2694.75
539.789	2602.75
539.888	2492.75
539.987	2432.75
540.086	2560.75
540.185	2523.75
540.284	2587.75
540.383	2497.75
540.482	2489.75
540.581	2594.75
540.68	2468.75
540.779	2519.75
540.878	2563.75
540.977	2596.75
541.076	2524.75
541.175	2554.75
541.274	2756.75
541.373	2508.75
541.472	2641.75
541.571	2588.75
541.67	3626.75
541.769	2670.75
541.868	2605.75
541.966	2539.75
542.065	2504.75
542.164	2578.75
542.263	2433.75
542.362	2508.75
542.461	2551.75
542.56	2511.75
542.658	2498.75
542.757	2394.75
542.856	2401.75
542.955	2293.75
543.054	2415.75
543.152	2571.75
543.251	2455.75
543.35	2507.75
543.449	2572.75
543.547	2416.75
543.646	2334.75
543.745	2478.75
543.843	2527.75
543.942	2437.75
544.041	2424.75
544.14	2518.75
544.238	2439.75
544.337	2608.75
544.436	2595.75
544.534	2593.75
544.633	2495.75
544.731	2509.75
544.83	2474.75
544.929	2469.75
545.027	2564.75
545.126	2455.75
545.224	2598.75
545.323	2480.75
545.421	2511.75
545.52	2519.75
545.619	2517.75
545.717	2520.75
545.816	2527.75
545.914	2561.75
546.013	2762.75
546.111	2611.75
546.209	2421.75
546.308	2526.75
546.406	2390.75
546.505	2602.75
546.603	2514.75
546.702	2468.75
546.8	2418.75
546.899	2389.75
546.997	2550.75
547.095	2481.75
547.194	2523.75
547.292	2483.75
547.39	2475.75
547.489	2384.75
547.587	2767.75
547.685	2417.75
547.784	2663.75
547.882	2600.75
547.98	2527.75
548.079	2480.75
548.177	2463.75
548.275	2449.75
548.373	2565.75
548.472	2480.75
548.57	2525.75
548.668	2541.75
548.766	2454.75
548.864	2599.75
548.963	2496.75
549.061	2616.75
549.159	2474.75
549.257	2581.75
549.355	2458.75
549.454	2461.75
549.552	2595.75
549.65	2487.75
549.748	2482.75
549.846	2476.75
549.944	2488.75
550.042	2497.75
550.14	2525.75
550.238	2479.75
550.336	2380.75
550.434	2427.75
550.532	2366.75
550.631	2507.75
550.729	2537.75
550.827	2490.75
550.925	2403.75
551.023	2403.75
551.121	2400.75
551.218	2408.75
551.316	2349.75
551.414	2450.75
551.512	2277.75
551.61	2333.75
551.708	2470.75
551.806	2433.75
551.904	2369.75
552.002	2423.75
552.1	2430.75
552.198	2436.75
552.296	2600.75
552.393	2623.75
552.491	2673.75
552.589	2589.75
552.687	2685.75
552.785	2653.75
552.882	2799.75
552.98	2928.75
553.078	2768.75
553.176	2729.75
553.274	2671.75
553.371	2700.75
553.469	2632.75
553.567	2654.75
553.665	2628.75
553.762	2944.75
553.86	2619.75
553.958	2653.75
554.055	2545.75
554.153	2575.75
554.251	2626.75
554.348	2564.75
554.446	2504.75
554.544	2569.75
554.641	2778.75
554.739	2345.75
554.837	2443.75
554.934	2473.75
555.032	2378.75
555.129	2391.75
555.227	2664.75
555.324	6316.75
555.422	2674.75
555.519	2424.75
555.617	2247.75
555.715	2286.75
555.812	3787.75
555.91	2358.75
556.007	2300.75
556.105	2274.75
556.202	2322.75
556.299	2212.75
556.397	2272.75
556.494	2257.75
556.592	2203.75
556.689	2345.75
556.787	2313.75
556.884	2145.75
556.981	2230.75
557.079	2239.75
557.176	2211.75
557.273	2331.75
557.371	2353.75
557.468	2271.75
557.566	2250.75
557.663	2233.75
557.76	2296.75
557.857	2202.75
557.955	2268.75
558.052	2357.75
558.149	2279.75
558.247	2360.75
558.344	2239.75
558.441	2187.75
558.538	2209.75
558.636	2230.75
558.733	2301.75
558.83	2255.75
558.927	2245.75
559.024	2241.75
559.122	2239.75
559.219	2212.75
559.316	2324.75
559.413	2344.75
559.51	2202.75
559.607	2266.75
559.704	2217.75
559.801	2249.75
559.899	2218.75
559.996	2467.75
560.093	2271.75
560.19	2204.75
560.287	2340.75
560.384	2373.75
560.481	2236.75
560.578	2311.75
560.675	2206.75
560.772	2330.75
560.869	2310.75
560.966	2355.75
561.063	2294.75
561.16	2405.75
561.257	2271.75
561.354	2309.75
561.451	2291.75
561.548	2346.75
561.645	2417.75
561.742	2312.75
561.838	2344.75
561.935	2241.75
562.032	2334.75
562.129	2363.75
562.226	2263.75
562.323	2301.75
562.42	2363.75
562.516	2299.75
562.613	2351.75
562.71	2337.75
562.807	3010.75
562.904	2319.75
563	2312.75
563.097	2369.75
563.194	2316.75
563.291	2300.75
563.387	2454.75
563.484	2323.75
563.581	2321.75
563.678	2348.75
563.774	2676.75
563.871	2386.75
563.968	2423.75
564.064	2411.75
564.161	2398.75
564.258	2385.75
564.354	2582.75
564.451	2543.75
564.548	2529.75
564.644	2551.75
564.741	2536.75
564.837	2459.75
564.934	2601.75
565.031	2593.75
565.127	2554.75
565.224	2660.75
565.32	2770.75
565.417	2678.75
565.513	2792.75
565.61	2846.75
565.706	2912.75
565.803	2878.75
565.899	2956.75
565.996	2969.75
566.092	3058.75
566.189	3131.75
566.285	3183.75
566.382	3319.75
566.478	3474.75
566.574	3572.75
566.671	3419.75
566.767	3526.75
566.864	3496.75
566.96	3492.75
567.056	3504.75
567.153	3878.75
567.249	3681.75
567.345	3810.75
567.442	3938.75
567.538	3908.75
567.634	3907.75
567.731	4018.75
567.827	3932.75
567.923	3914.75
568.019	3760.75
568.116	3611.75
568.212	3302.75
568.308	3460.75
568.404	3285.75
568.501	3162.75
568.597	3189.75
568.693	2938.75
568.789	3401.75
568.885	2794.75
568.982	2828.75
569.078	2678.75
569.174	2662.75
569.27	2522.75
569.366	2625.75
569.462	2490.75
569.558	2432.75
569.655	2498.75
569.751	2372.75
569.847	2328.75
569.943	2402.75
570.039	2355.75
570.135	2778.75
570.231	2378.75
570.327	2480.75
570.423	2418.75
570.519	2355.75
570.615	2284.75
570.711	2345.75
570.807	2411.75
570.903	2347.75
570.999	2366.75
571.095	2352.75
571.191	2334.75
571.287	2277.75
571.383	2295.75
571.479	2252.75
571.574	2279.75
571.67	2205.75
571.766	2382.75
571.862	2156.75
571.958	2056.75
572.054	2184.75
572.15	2068.75
572.246	2019.75
572.341	2125.75
572.437	2045.75
572.533	2081.75
572.629	2015.75
572.725	1991.75
572.82	1916.75
572.916	2043.75
573.012	2006.75
573.108	1955.75
573.203	1915.75
573.299	1880.75
573.395	1867.75
573.49	1883.75
573.586	1838.75
573.682	1928.75
573.778	1960.75
573.873	1837.75
573.969	1871.75
574.065	1829.75
574.16	1863.75
574.256	1895.75
574.351	1864.75
574.447	1763.75
574.543	1840.75
574.638	1903.75
574.734	1888.75
574.829	2021.75
574.925	1882.75
575.02	1759.75
575.116	1813.75
575.212	1810.75
575.307	1883.75
575.403	1806.75
575.498	1828.75
575.594	1650.75
575.689	1775.75
575.784	1859.75
575.88	1702.75
575.975	1783.75
576.071	1693.75
576.166	1674.75
576.262	1720.75
576.357	1662.75
576.452	1882.75
576.548	1679.75
576.643	1625.75
576.739	1780.75
576.834	1670.75
576.929	1699.75
577.025	2260.75
577.12	1690.75
577.215	1602.75
577.311	1666.75
577.406	1715.75
577.501	1799.75
577.597	1540.75
577.692	1767.75
577.787	1717.75
577.882	1605.75
577.978	1664.75
578.073	1515.75
578.168	1495.75
578.263	1548.75
578.358	1516.75
578.454	1475.75
578.549	1523.75
578.644	1447.75
578.739	1521.75
578.834	1481.75
578.929	1491.75
579.025	1441.75
579.12	1505.75
579.215	1750.75
579.31	1626.75
579.405	1399.75
579.5	1565.75
579.595	1423.75
579.69	1387.75
579.785	1492.75
579.88	1428.75
579.975	1448.75
580.07	1429.75
580.165	1427.75
580.26	1474.75
580.355	1437.75
580.45	1506.75
580.545	1368.75
580.64	1378.75
580.735	1483.75
580.83	1425.75
580.925	1368.75
581.02	1327.75
581.115	1322.75
581.21	1338.75
581.305	1363.75
581.4	1360.75
581.495	1313.75
581.589	1353.75
581.684	1310.75
581.779	1340.75
581.874	1375.75
581.969	1462.75
582.064	1253.75
582.158	1308.75
582.253	1309.75
582.348	1303.75
582.443	1291.75
582.537	1351.75
582.632	1534.75
582.727	1344.75
582.822	1196.75
582.916	1286.75
583.011	1257.75
583.106	1322.75
583.201	1234.75
583.295	1291.75
583.39	1231.75
583.485	1246.75
583.579	2687.75
583.674	1379.75
583.769	1495.75
583.863	1211.75
583.958	1226.75
584.052	1185.75
584.147	1211.75
584.242	1138.75
584.336	1224.75
584.431	1369.75
584.525	1190.75
584.62	1328.75
584.714	1338.75
584.809	1212.75
584.903	1233.75
584.998	1298.75
585.092	1122.75
585.187	1139.75
585.281	1171.75
585.376	1257.75
585.47	1160.75
585.565	1140.75
585.659	1117.75
585.754	1135.75
585.848	1226.75
585.942	1131.75
586.037	1094.75
586.131	3023.75
586.226	1303.75
586.32	1168.75
586.414	1051.75
586.509	1226.75
586.603	1142.75
586.697	1116.75
586.792	1124.75
586.886	1102.75
586.98	1223.75
587.075	1078.75
587.169	1152.75
587.263	1251.75
587.357	1130.75
587.452	1109.75
587.546	1161.75
587.64	1035.75
587.734	1126.75
587.829	1139.75
587.923	1031.75
588.017	1075.75
588.111	1041.75
588.205	1079.75
588.3	1026.75
588.394	1017.75
588.488	996.75
588.582	1033.75
588.676	1119.75
588.77	1064.75
588.864	1136.75
588.958	1063.75
589.052	977.75
589.147	1067.75
589.241	1093.75
589.335	1054.75
589.429	1100.75
589.523	1014.75
589.617	1124.75
589.711	1090.75
589.805	1073.75
589.899	1143.75
589.993	1023.75
590.087	970.75
590.181	996.75
590.275	1109.75
590.369	963.75
590.462	982.75
590.556	1010.75
590.65	975.75
590.744	1033.75
590.838	1004.75
590.932	1022.75
591.026	1077.75
591.12	1219.75
591.214	1020.75
591.307	1034.75
591.401	1053.75
591.495	1089.75
591.589	1028.75
591.683	1056.75
591.777	1136.75
591.87	1364.75
591.964	1141.75
592.058	1080.75
592.152	1121.75
592.245	1124.75
592.339	1216.75
592.433	1234.75
592.527	1154.75
592.62	1164.75
592.714	1163.75
592.808	1150.75
592.901	1200.75
592.995	1170.75
593.089	1365.75
593.182	1242.75
593.276	1193.75
593.37	1125.75
593.463	1152.75
593.557	1202.75
593.65	1152.75
593.744	1169.75
593.837	1275.75
593.931	1126.75
594.025	3196.75
594.118	1438.75
594.212	1152.75
594.305	1103.75
594.399	1211.75
594.492	1447.75
594.586	1119.75
594.679	1042.75
594.773	1121.75
594.866	1140.75
594.96	1111.75
595.053	1080.75
595.146	1057.75
595.24	974.75
595.333	1029.75
595.427	978.75
595.52	970.75
595.614	1130.75
595.707	1032.75
595.8	952.75
595.894	960.75
595.987	943.75
596.08	873.75
596.174	1188.75
596.267	1104.75
596.36	1034.75
596.454	1073.75
596.547	1035.75
596.64	920.75
596.733	856.75
596.827	944.75
596.92	952.75
597.013	848.75
597.106	793.75
597.2	831.75
597.293	778.75
597.386	928.75
597.479	998.75
597.572	859.75
597.666	824.75
597.759	857.75
597.852	885.75
597.945	751.75
598.038	816.75
598.131	820.75
598.224	819.75
598.317	918.75
598.411	866.75
598.504	767.75
598.597	841.75
598.69	843.75
598.783	770.75
598.876	818.75
598.969	830.75
599.062	731.75
599.155	851.75
599.248	818.75
599.341	835.75
599.434	815.75
599.527	905.75
599.62	817.75
599.713	752.75
599.806	870.75
599.899	991.75
599.991	767.75
600.084	996.75
600.177	818.75
600.27	759.75
600.363	855.75
600.456	812.75
600.549	848.75
600.642	715.75
600.734	820.75
600.827	827.75
600.92	860.75
601.013	768.75
601.106	884.75
601.199	756.75
601.291	767.75
601.384	861.75
601.477	952.75
601.57	894.75
601.662	819.75
601.755	763.75
601.848	820.75
601.94	809.75
602.033	870.75
602.126	764.75
602.219	739.75
602.311	890.75
602.404	723.75
602.497	753.75
602.589	761.75
602.682	813.75
602.774	802.75
602.867	842.75
602.96	760.75
603.052	732.75
603.145	777.75
603.237	784.75
603.33	766.75
603.422	850.75
603.515	742.75
603.608	767.75
603.7	795.75
603.793	746.75
603.885	741.75
603.978	738.75
604.07	828.75
604.163	716.75
604.255	779.75
604.347	734.75
604.44	682.75
604.532	803.75
604.625	761.75
604.717	731.75
604.81	739.75
604.902	724.75
604.994	804.75
605.087	734.75
605.179	719.75
605.271	793.75
605.364	717.75
605.456	750.75
605.548	758.75
605.641	753.75
605.733	711.75
605.825	755.75
605.918	682.75
606.01	900.75
606.102	1066.75
606.194	754.75
606.287	859.75
606.379	706.75
606.471	785.75
606.563	792.75
606.655	815.75
606.748	888.75
606.84	691.75
606.932	738.75
607.024	715.75
607.116	697.75
607.208	671.75
607.301	806.75
607.393	765.75
607.485	740.75
607.577	748.75
607.669	904.75
607.761	761.75
607.853	957.75
607.945	799.75
608.037	653.75
608.129	731.75
608.221	751.75
608.313	683.75
608.405	752.75
608.497	731.75
608.589	676.75
608.681	666.75
608.773	785.75
608.865	759.75
608.957	720.75
609.049	692.75
609.141	864.75
609.233	673.75
609.325	694.75
609.417	715.75
609.509	711.75
609.601	868.75
609.693	788.75
609.784	708.75
609.876	734.75
609.968	770.75
610.06	2535.75
610.152	880.75
610.244	1328.75
610.335	769.75
610.427	667.75
610.519	701.75
610.611	767.75
610.702	672.75
610.794	687.75
610.886	791.75
610.978	729.75
611.069	1063.75
611.161	740.75
611.253	757.75
611.344	622.75
611.436	624.75
611.528	723.75
611.62	599.75
611.711	646.75
611.803	662.75
611.894	590.75
611.986	586.75
612.078	621.75
612.169	592.75
612.261	571.75
612.352	534.75
612.444	547.75
612.536	625.75
612.627	576.75
612.719	516.75
612.81	485.75
612.902	463.75
612.993	591.75
613.085	488.75
613.176	425.75
613.268	548.75
613.359	460.75
613.451	465.75
613.542	485.75
613.634	438.75
613.725	459.75
613.816	538.75
613.908	456.75
613.999	440.75
614.091	356.75
614.182	443.75
614.273	406.75
614.365	384.75
614.456	332.75
614.547	338.75
614.639	298.75
614.73	308.75
614.821	382.75
614.913	313.75
615.004	263.75
615.095	286.75
615.187	246.75
