Data from sinsal_HRC06701__8__69.txt Node

Date: Thu Apr 18 01:41:11 CDT 2024
User: Estudiantes 2
Spectrometer: HR+C0670
Trigger mode: 4
Integration Time (sec): 1.000000E0
Scans to average: 1
Electric dark correction enabled: true
Nonlinearity correction enabled: false
Boxcar width: 0
XAxis mode: Wavelengths
Number of Pixels in Spectrum: 2048
>>>>>Begin Spectral Data<<<<<
407.81	-107.31
407.921	-107.31
408.032	-107.31
408.143	-82.31
408.254	-112.31
408.365	-2.31
408.476	243.69
408.587	-24.31
408.699	-20.31
408.81	0.69
408.921	-52.31
409.032	-50.31
409.143	72.69
409.254	23.69
409.365	60.69
409.476	-16.31
409.587	63.69
409.698	2.69
409.809	75.69
409.92	13.69
410.031	-39.31
410.142	11.69
410.253	62.69
410.364	6.69
410.475	410.69
410.585	2121.69
410.696	2295.69
410.807	2208.69
410.918	2223.69
411.029	2267.69
411.14	2186.69
411.251	2213.69
411.362	2344.69
411.472	2308.69
411.583	2263.69
411.694	2434.69
411.805	2281.69
411.916	2264.69
412.026	2351.69
412.137	2330.69
412.248	2280.69
412.359	2334.69
412.47	2237.69
412.58	2142.69
412.691	2275.69
412.802	2243.69
412.912	2254.69
413.023	2217.69
413.134	2240.69
413.245	2240.69
413.355	2191.69
413.466	2266.69
413.577	2217.69
413.687	2319.69
413.798	2215.69
413.909	2308.69
414.019	2244.69
414.13	2238.69
414.24	2243.69
414.351	2270.69
414.462	2453.69
414.572	2337.69
414.683	2306.69
414.793	2255.69
414.904	2550.69
415.014	2210.69
415.125	2193.69
415.235	2303.69
415.346	2371.69
415.456	2344.69
415.567	2258.69
415.677	2309.69
415.788	2275.69
415.898	2256.69
416.009	2319.69
416.119	2260.69
416.23	2207.69
416.34	2146.69
416.45	2267.69
416.561	3007.69
416.671	2430.69
416.782	2242.69
416.892	2305.69
417.002	2275.69
417.113	2388.69
417.223	2306.69
417.333	2275.69
417.444	2352.69
417.554	2389.69
417.664	2433.69
417.775	2322.69
417.885	2421.69
417.995	2438.69
418.106	2659.69
418.216	2480.69
418.326	2518.69
418.436	2658.69
418.547	2620.69
418.657	2566.69
418.767	2698.69
418.877	2591.69
418.987	2633.69
419.098	2628.69
419.208	2698.69
419.318	2633.69
419.428	2699.69
419.538	2596.69
419.648	2625.69
419.759	2691.69
419.869	2677.69
419.979	2659.69
420.089	2578.69
420.199	2552.69
420.309	2681.69
420.419	2667.69
420.529	2553.69
420.639	3150.69
420.749	2662.69
420.859	2738.69
420.969	2761.69
421.079	2895.69
421.189	2734.69
421.299	2746.69
421.409	2686.69
421.519	2793.69
421.629	2866.69
421.739	2765.69
421.849	2789.69
421.959	2782.69
422.069	2891.69
422.179	2863.69
422.289	2838.69
422.399	2981.69
422.509	2980.69
422.619	5076.69
422.729	3177.69
422.838	2917.69
422.948	3071.69
423.058	3022.69
423.168	3035.69
423.278	2998.69
423.388	3131.69
423.498	3254.69
423.607	3109.69
423.717	3384.69
423.827	3489.69
423.937	3280.69
424.046	3310.69
424.156	3375.69
424.266	3192.69
424.376	3433.69
424.485	3385.69
424.595	3333.69
424.705	3258.69
424.815	3337.69
424.924	3765.69
425.034	3391.69
425.144	3295.69
425.253	3441.69
425.363	3460.69
425.473	3536.69
425.582	3365.69
425.692	3431.69
425.801	3399.69
425.911	3586.69
426.021	3461.69
426.13	3612.69
426.24	3630.69
426.349	3603.69
426.459	3485.69
426.568	3513.69
426.678	3639.69
426.787	3626.69
426.897	3534.69
427.006	3694.69
427.116	3642.69
427.225	3687.69
427.335	3807.69
427.444	3700.69
427.554	3734.69
427.663	3773.69
427.773	3712.69
427.882	3779.69
427.992	3755.69
428.101	3869.69
428.21	3747.69
428.32	3926.69
428.429	3810.69
428.539	4124.69
428.648	3859.69
428.757	3928.69
428.867	3925.69
428.976	4067.69
429.085	4018.69
429.195	4017.69
429.304	3976.69
429.413	4064.69
429.523	4099.69
429.632	4034.69
429.741	4108.69
429.85	4115.69
429.96	4147.69
430.069	4094.69
430.178	4226.69
430.287	4358.69
430.397	4158.69
430.506	4233.69
430.615	4231.69
430.724	4301.69
430.833	4349.69
430.943	4259.69
431.052	4223.69
431.161	4278.69
431.27	4382.69
431.379	4419.69
431.488	4672.69
431.597	4701.69
431.706	4657.69
431.816	4641.69
431.925	4687.69
432.034	4666.69
432.143	4577.69
432.252	4576.69
432.361	4617.69
432.47	4563.69
432.579	4638.69
432.688	4577.69
432.797	4602.69
432.906	4541.69
433.015	4680.69
433.124	4898.69
433.233	4723.69
433.342	4683.69
433.451	4700.69
433.56	4569.69
433.669	4618.69
433.778	4666.69
433.886	4764.69
433.995	4704.69
434.104	4909.69
434.213	4842.69
434.322	4778.69
434.431	5058.69
434.54	5222.69
434.649	5338.69
434.757	5323.69
434.866	5229.69
434.975	5243.69
435.084	5051.69
435.193	4937.69
435.301	5051.69
435.41	5012.69
435.519	5167.69
435.628	4619.69
435.737	4496.69
435.845	4463.69
435.954	4388.69
436.063	4419.69
436.171	4582.69
436.28	4377.69
436.389	4574.69
436.498	4354.69
436.606	4510.69
436.715	4528.69
436.823	4264.69
436.932	4283.69
437.041	4165.69
437.149	4260.69
437.258	4178.69
437.367	4021.69
437.475	4068.69
437.584	4303.69
437.692	4074.69
437.801	5440.69
437.91	4155.69
438.018	4123.69
438.127	4109.69
438.235	4169.69
438.344	4104.69
438.452	4085.69
438.561	3922.69
438.669	4016.69
438.778	3887.69
438.886	4012.69
438.995	3941.69
439.103	3970.69
439.212	4016.69
439.32	4032.69
439.428	4033.69
439.537	4038.69
439.645	4184.69
439.754	4189.69
439.862	3999.69
439.97	4067.69
440.079	4106.69
440.187	3997.69
440.295	4221.69
440.404	4168.69
440.512	4183.69
440.62	4302.69
440.729	4369.69
440.837	4361.69
440.945	4907.69
441.054	4516.69
441.162	4427.69
441.27	4562.69
441.378	4632.69
441.487	4629.69
441.595	4945.69
441.703	4639.69
441.811	4591.69
441.92	4514.69
442.028	4423.69
442.136	4485.69
442.244	4381.69
442.352	4386.69
442.461	4305.69
442.569	4354.69
442.677	4264.69
442.785	4393.69
442.893	4342.69
443.001	4342.69
443.109	4323.69
443.217	4420.69
443.325	4363.69
443.434	4895.69
443.542	4698.69
443.65	4406.69
443.758	4577.69
443.866	4529.69
443.974	4966.69
444.082	4708.69
444.19	4893.69
444.298	4929.69
444.406	5101.69
444.514	5224.69
444.622	5310.69
444.73	5239.69
444.838	5118.69
444.946	5161.69
445.054	4849.69
445.161	4853.69
445.269	4634.69
445.377	4716.69
445.485	4581.69
445.593	4522.69
445.701	4676.69
445.809	4535.69
445.917	4507.69
446.025	4403.69
446.132	4502.69
446.24	4531.69
446.348	4537.69
446.456	4312.69
446.564	4399.69
446.671	4452.69
446.779	4420.69
446.887	4406.69
446.995	4445.69
447.102	4537.69
447.21	4376.69
447.318	4321.69
447.426	4443.69
447.533	4496.69
447.641	5418.69
447.749	4458.69
447.856	4307.69
447.964	4300.69
448.072	4450.69
448.179	4261.69
448.287	4322.69
448.395	4297.69
448.502	4250.69
448.61	4342.69
448.718	4336.69
448.825	4506.69
448.933	4245.69
449.04	4402.69
449.148	4483.69
449.256	4470.69
449.363	4439.69
449.471	4542.69
449.578	4586.69
449.686	4461.69
449.793	4745.69
449.901	4598.69
450.008	4657.69
450.116	4814.69
450.223	4739.69
450.331	4825.69
450.438	4817.69
450.546	4927.69
450.653	4900.69
450.76	5105.69
450.868	5103.69
450.975	5205.69
451.083	5058.69
451.19	5227.69
451.297	5077.69
451.405	5183.69
451.512	5112.69
451.619	5205.69
451.727	5217.69
451.834	5034.69
451.941	5248.69
452.049	5177.69
452.156	5243.69
452.263	5335.69
452.371	5266.69
452.478	5211.69
452.585	5379.69
452.692	5341.69
452.8	5306.69
452.907	5570.69
453.014	5458.69
453.121	5363.69
453.229	5504.69
453.336	5581.69
453.443	5451.69
453.55	5408.69
453.657	5514.69
453.765	5572.69
453.872	5503.69
453.979	5541.69
454.086	5558.69
454.193	5628.69
454.3	5521.69
454.407	5725.69
454.514	5641.69
454.621	5573.69
454.729	5669.69
454.836	5628.69
454.943	5737.69
455.05	5864.69
455.157	5802.69
455.264	5649.69
455.371	5835.69
455.478	5764.69
455.585	6945.69
455.692	5954.69
455.799	5973.69
455.906	5828.69
456.013	5835.69
456.12	5808.69
456.227	5897.69
456.334	6068.69
456.44	6209.69
456.547	6022.69
456.654	5913.69
456.761	6194.69
456.868	6177.69
456.975	6237.69
457.082	6175.69
457.189	6092.69
457.296	6100.69
457.402	6158.69
457.509	6187.69
457.616	6183.69
457.723	6562.69
457.83	6436.69
457.936	6483.69
458.043	6709.69
458.15	6490.69
458.257	6567.69
458.363	6814.69
458.47	6924.69
458.577	6985.69
458.684	6953.69
458.79	7265.69
458.897	7345.69
459.004	7495.69
459.11	7510.69
459.217	7618.69
459.324	7782.69
459.43	7874.69
459.537	8039.69
459.644	7996.69
459.75	8040.69
459.857	8381.69
459.964	8239.69
460.07	8298.69
460.177	8418.69
460.283	8384.69
460.39	8654.69
460.496	8345.69
460.603	8472.69
460.71	8421.69
460.816	8361.69
460.923	8330.69
461.029	8468.69
461.136	8442.69
461.242	8442.69
461.349	8485.69
461.455	8405.69
461.562	8649.69
461.668	8728.69
461.774	8528.69
461.881	8667.69
461.987	8847.69
462.094	8953.69
462.2	9246.69
462.307	9151.69
462.413	9015.69
462.519	9271.69
462.626	9928.69
462.732	9814.69
462.838	10263.69
462.945	10678.69
463.051	10731.69
463.157	10503.69
463.264	10225.69
463.37	10002.69
463.476	9718.69
463.583	9670.69
463.689	9579.69
463.795	9524.69
463.901	9501.69
464.008	9743.69
464.114	9641.69
464.22	9550.69
464.326	9527.69
464.433	9228.69
464.539	9026.69
464.645	8890.69
464.751	8869.69
464.857	8605.69
464.963	8296.69
465.07	8100.69
465.176	7726.69
465.282	7636.69
465.388	7635.69
465.494	7166.69
465.6	7088.69
465.706	6945.69
465.812	6763.69
465.918	6735.69
466.024	6710.69
466.131	6563.69
466.237	6389.69
466.343	6289.69
466.449	6294.69
466.555	5991.69
466.661	6065.69
466.767	6035.69
466.873	5845.69
466.979	6168.69
467.085	5817.69
467.191	5976.69
467.296	5906.69
467.402	5898.69
467.508	5925.69
467.614	5827.69
467.72	5687.69
467.826	5668.69
467.932	5633.69
468.038	5472.69
468.144	5481.69
468.25	5467.69
468.355	5367.69
468.461	5490.69
468.567	5365.69
468.673	5364.69
468.779	5376.69
468.885	5363.69
468.99	5307.69
469.096	5392.69
469.202	5591.69
469.308	5394.69
469.413	5471.69
469.519	5421.69
469.625	5449.69
469.731	5615.69
469.836	5583.69
469.942	5763.69
470.048	5595.69
470.153	5630.69
470.259	5636.69
470.365	5618.69
470.47	5632.69
470.576	5600.69
470.682	5519.69
470.787	5388.69
470.893	5344.69
470.999	5373.69
471.104	5271.69
471.21	5209.69
471.315	4981.69
471.421	5035.69
471.527	5083.69
471.632	4997.69
471.738	4909.69
471.843	4795.69
471.949	4862.69
472.054	4738.69
472.16	4694.69
472.265	4773.69
472.371	4676.69
472.476	4681.69
472.582	4709.69
472.687	4530.69
472.793	4497.69
472.898	4547.69
473.003	4483.69
473.109	4461.69
473.214	4504.69
473.32	4471.69
473.425	4413.69
473.53	4420.69
473.636	4402.69
473.741	4410.69
473.847	4449.69
473.952	4422.69
474.057	4433.69
474.163	4472.69
474.268	4388.69
474.373	4373.69
474.478	4450.69
474.584	4369.69
474.689	4379.69
474.794	4409.69
474.9	4611.69
475.005	4370.69
475.11	4530.69
475.215	4309.69
475.321	4446.69
475.426	4575.69
475.531	4521.69
475.636	4497.69
475.741	4367.69
475.846	4554.69
475.952	4577.69
476.057	4424.69
476.162	4505.69
476.267	4670.69
476.372	4825.69
476.477	4426.69
476.582	4722.69
476.687	4674.69
476.793	4641.69
476.898	4701.69
477.003	4658.69
477.108	4643.69
477.213	4635.69
477.318	4790.69
477.423	4847.69
477.528	4961.69
477.633	4985.69
477.738	4976.69
477.843	4951.69
477.948	5085.69
478.053	5060.69
478.158	4998.69
478.263	5181.69
478.368	5119.69
478.473	5397.69
478.578	5215.69
478.682	5265.69
478.787	5242.69
478.892	5276.69
478.997	5451.69
479.102	5223.69
479.207	5335.69
479.312	5460.69
479.417	5337.69
479.521	5290.69
479.626	5493.69
479.731	5519.69
479.836	5495.69
479.941	5639.69
480.045	5822.69
480.15	5667.69
480.255	5827.69
480.36	5820.69
480.465	5836.69
480.569	5888.69
480.674	5665.69
480.779	5578.69
480.883	5575.69
480.988	5537.69
481.093	5517.69
481.197	5514.69
481.302	5460.69
481.407	5589.69
481.511	6942.69
481.616	5563.69
481.721	5441.69
481.825	5631.69
481.93	5393.69
482.035	5462.69
482.139	5648.69
482.244	5546.69
482.348	5495.69
482.453	5555.69
482.557	5674.69
482.662	5584.69
482.767	5615.69
482.871	5547.69
482.976	5757.69
483.08	5841.69
483.185	5859.69
483.289	5812.69
483.394	5901.69
483.498	5885.69
483.603	5798.69
483.707	5937.69
483.811	5951.69
483.916	6045.69
484.02	5990.69
484.125	6083.69
484.229	6158.69
484.333	6327.69
484.438	6169.69
484.542	6155.69
484.647	6245.69
484.751	6416.69
484.855	6346.69
484.96	6302.69
485.064	6399.69
485.168	6613.69
485.273	6432.69
485.377	6483.69
485.481	6891.69
485.585	6718.69
485.69	6737.69
485.794	6882.69
485.898	6731.69
486.002	6738.69
486.107	6804.69
486.211	6727.69
486.315	6800.69
486.419	6818.69
486.524	6841.69
486.628	6822.69
486.732	6773.69
486.836	6794.69
486.94	6957.69
487.044	6919.69
487.148	6948.69
487.253	6817.69
487.357	6973.69
487.461	7052.69
487.565	6795.69
487.669	6795.69
487.773	6803.69
487.877	6818.69
487.981	6826.69
488.085	6830.69
488.189	6900.69
488.293	6976.69
488.397	7131.69
488.501	7008.69
488.605	6693.69
488.709	6835.69
488.813	6919.69
488.917	6903.69
489.021	6777.69
489.125	7062.69
489.229	6721.69
489.333	7064.69
489.437	6958.69
489.541	7055.69
489.645	6949.69
489.749	7001.69
489.853	6963.69
489.956	6912.69
490.06	6973.69
490.164	7003.69
490.268	6981.69
490.372	6994.69
490.476	7024.69
490.579	7075.69
490.683	7512.69
490.787	7039.69
490.891	6960.69
490.995	6999.69
491.098	6995.69
491.202	6988.69
491.306	7015.69
491.41	6887.69
491.513	7044.69
491.617	6952.69
491.721	7145.69
491.824	7266.69
491.928	6963.69
492.032	7079.69
492.136	7007.69
492.239	6988.69
492.343	7178.69
492.446	7395.69
492.55	7025.69
492.654	6985.69
492.757	6911.69
492.861	7119.69
492.965	7009.69
493.068	7146.69
493.172	6975.69
493.275	6927.69
493.379	7055.69
493.482	7129.69
493.586	7266.69
493.689	7295.69
493.793	7102.69
493.896	7245.69
494	7077.69
494.103	7148.69
494.207	7459.69
494.31	7466.69
494.414	7190.69
494.517	7283.69
494.621	6995.69
494.724	6962.69
494.828	6907.69
494.931	6811.69
495.034	6907.69
495.138	7027.69
495.241	6884.69
495.345	7520.69
495.448	7062.69
495.551	6866.69
495.655	6870.69
495.758	6875.69
495.861	6965.69
495.965	6799.69
496.068	6955.69
496.171	7018.69
496.274	6889.69
496.378	6909.69
496.481	7017.69
496.584	6928.69
496.687	7042.69
496.791	7032.69
496.894	7070.69
496.997	7055.69
497.1	7136.69
497.204	7230.69
497.307	7188.69
497.41	7456.69
497.513	7655.69
497.616	7438.69
497.719	7501.69
497.823	7571.69
497.926	7683.69
498.029	7722.69
498.132	7822.69
498.235	8050.69
498.338	8322.69
498.441	8448.69
498.544	8668.69
498.647	8810.69
498.75	9160.69
498.853	9616.69
498.956	9669.69
499.059	10220.69
499.163	10358.69
499.266	10771.69
499.369	11026.69
499.471	11392.69
499.574	12010.69
499.677	12430.69
499.78	13237.69
499.883	13944.69
499.986	14508.69
500.089	14508.69
500.192	14508.69
500.295	14508.69
500.398	14508.69
500.501	14508.69
500.604	14508.69
500.707	14218.69
500.809	13665.69
500.912	13100.69
501.015	12567.69
501.118	11790.69
501.221	11361.69
501.324	10780.69
501.426	10254.69
501.529	9717.69
501.632	9444.69
501.735	9143.69
501.837	8811.69
501.94	8562.69
502.043	8361.69
502.146	8141.69
502.248	7910.69
502.351	7682.69
502.454	7635.69
502.557	7470.69
502.659	7311.69
502.762	7024.69
502.865	6899.69
502.967	6742.69
503.07	6669.69
503.173	6682.69
503.275	6531.69
503.378	6366.69
503.48	6347.69
503.583	6293.69
503.686	6260.69
503.788	6468.69
503.891	6227.69
503.993	6340.69
504.096	6273.69
504.198	6373.69
504.301	6327.69
504.403	6357.69
504.506	6266.69
504.608	6207.69
504.711	5993.69
504.813	5952.69
504.916	5805.69
505.018	5478.69
505.121	5437.69
505.223	5439.69
505.326	5235.69
505.428	5432.69
505.531	5156.69
505.633	5085.69
505.735	5070.69
505.838	5054.69
505.94	5043.69
506.042	5008.69
506.145	4891.69
506.247	4938.69
506.35	4739.69
506.452	4964.69
506.554	4936.69
506.656	4801.69
506.759	4740.69
506.861	4778.69
506.963	4725.69
507.066	4761.69
507.168	4905.69
507.27	4724.69
507.372	4545.69
507.475	4631.69
507.577	4616.69
507.679	4538.69
507.781	4419.69
507.883	4523.69
507.986	4511.69
508.088	4511.69
508.19	4528.69
508.292	4476.69
508.394	4431.69
508.496	4481.69
508.598	4309.69
508.701	4386.69
508.803	4473.69
508.905	4254.69
509.007	4351.69
509.109	4441.69
509.211	4399.69
509.313	4258.69
509.415	4247.69
509.517	4425.69
509.619	4261.69
509.721	4248.69
509.823	4254.69
509.925	4395.69
510.027	4269.69
510.129	4407.69
510.231	4286.69
510.333	4184.69
510.435	4305.69
510.537	4332.69
510.639	4248.69
510.741	4240.69
510.843	4318.69
510.945	4304.69
511.047	4271.69
511.148	4308.69
511.25	4269.69
511.352	4278.69
511.454	4280.69
511.556	4353.69
511.658	4302.69
511.76	4426.69
511.861	4331.69
511.963	4160.69
512.065	4218.69
512.167	4216.69
512.268	4393.69
512.37	4273.69
512.472	4402.69
512.574	4314.69
512.676	4321.69
512.777	4294.69
512.879	4255.69
512.981	4265.69
513.082	4370.69
513.184	4265.69
513.286	4754.69
513.387	4430.69
513.489	4473.69
513.591	4320.69
513.692	4495.69
513.794	4400.69
513.896	4266.69
513.997	4431.69
514.099	4415.69
514.2	4467.69
514.302	4453.69
514.404	4529.69
514.505	4497.69
514.607	4602.69
514.708	4537.69
514.81	4566.69
514.911	4519.69
515.013	4643.69
515.114	4634.69
515.216	4545.69
515.317	4747.69
515.419	4680.69
515.52	4744.69
515.622	4760.69
515.723	4878.69
515.825	4915.69
515.926	5015.69
516.027	4942.69
516.129	5085.69
516.23	5023.69
516.332	5166.69
516.433	5282.69
516.534	5288.69
516.636	5370.69
516.737	5379.69
516.838	6399.69
516.94	5851.69
517.041	6078.69
517.142	6189.69
517.244	6181.69
517.345	6167.69
517.446	6314.69
517.547	6391.69
517.649	6270.69
517.75	6390.69
517.851	6202.69
517.952	6446.69
518.054	6221.69
518.155	6257.69
518.256	5969.69
518.357	6062.69
518.458	5791.69
518.56	5660.69
518.661	5706.69
518.762	5560.69
518.863	5623.69
518.964	5610.69
519.065	5437.69
519.166	5212.69
519.268	5210.69
519.369	5507.69
519.47	5120.69
519.571	5134.69
519.672	5080.69
519.773	5040.69
519.874	5056.69
519.975	5046.69
520.076	5068.69
520.177	5048.69
520.278	4979.69
520.379	5059.69
520.48	4877.69
520.581	4833.69
520.682	4966.69
520.783	4916.69
520.884	5013.69
520.985	4959.69
521.086	4878.69
521.187	4898.69
521.288	4906.69
521.389	4951.69
521.489	4946.69
521.59	4916.69
521.691	4756.69
521.792	4866.69
521.893	4938.69
521.994	4923.69
522.095	4874.69
522.195	4793.69
522.296	4947.69
522.397	4837.69
522.498	4785.69
522.599	4733.69
522.699	4722.69
522.8	4779.69
522.901	4984.69
523.002	4779.69
523.102	4933.69
523.203	4810.69
523.304	4921.69
523.405	4907.69
523.505	4930.69
523.606	4954.69
523.707	4837.69
523.807	4820.69
523.908	4826.69
524.009	4899.69
524.109	4819.69
524.21	4829.69
524.31	4885.69
524.411	4943.69
524.512	4944.69
524.612	4824.69
524.713	5050.69
524.813	4827.69
524.914	5138.69
525.014	9674.69
525.115	5175.69
525.216	4891.69
525.316	4895.69
525.417	4900.69
525.517	4875.69
525.618	4805.69
525.718	4816.69
525.819	4822.69
525.919	4836.69
526.019	4738.69
526.12	4831.69
526.22	4839.69
526.321	4738.69
526.421	4784.69
526.522	4771.69
526.622	4701.69
526.722	4646.69
526.823	4850.69
526.923	4866.69
527.023	4898.69
527.124	4903.69
527.224	4857.69
527.324	4767.69
527.425	4786.69
527.525	4803.69
527.625	4807.69
527.726	4744.69
527.826	4932.69
527.926	4792.69
528.026	4694.69
528.127	4754.69
528.227	4708.69
528.327	4822.69
528.427	4861.69
528.528	4880.69
528.628	4847.69
528.728	4765.69
528.828	4836.69
528.928	4742.69
529.029	4782.69
529.129	4839.69
529.229	4813.69
529.329	4733.69
529.429	4910.69
529.529	4885.69
529.629	4758.69
529.729	4715.69
529.829	4909.69
529.93	4664.69
530.03	4765.69
530.13	4704.69
530.23	4637.69
530.33	4776.69
530.43	4667.69
530.53	4701.69
530.63	4725.69
530.73	4658.69
530.83	4602.69
530.93	4596.69
531.03	4633.69
531.13	4655.69
531.23	4576.69
531.33	4710.69
531.429	4677.69
531.529	4679.69
531.629	4611.69
531.729	4565.69
531.829	4644.69
531.929	4568.69
532.029	4639.69
532.129	4511.69
532.229	4598.69
532.328	4611.69
532.428	4501.69
532.528	4400.69
532.628	4538.69
532.728	4490.69
532.827	4322.69
532.927	4577.69
533.027	4486.69
533.127	4593.69
533.227	4501.69
533.326	4464.69
533.426	4233.69
533.526	4534.69
533.625	4613.69
533.725	4649.69
533.825	4324.69
533.924	4287.69
534.024	4217.69
534.124	4287.69
534.223	4345.69
534.323	4676.69
534.423	4282.69
534.522	4229.69
534.622	4263.69
534.722	4269.69
534.821	4210.69
534.921	4154.69
535.02	4105.69
535.12	4191.69
535.219	4240.69
535.319	4233.69
535.419	4083.69
535.518	4093.69
535.618	4046.69
535.717	4092.69
535.817	3928.69
535.916	3838.69
536.016	3998.69
536.115	3894.69
536.215	3997.69
536.314	3763.69
536.413	3716.69
536.513	3799.69
536.612	3797.69
536.712	3813.69
536.811	3807.69
536.91	3710.69
537.01	3699.69
537.109	3818.69
537.209	3786.69
537.308	3646.69
537.407	3753.69
537.507	3809.69
537.606	3742.69
537.705	3743.69
537.805	3712.69
537.904	3575.69
538.003	3752.69
538.102	3721.69
538.202	3671.69
538.301	3601.69
538.4	3682.69
538.499	3687.69
538.599	3599.69
538.698	3818.69
538.797	3662.69
538.896	3649.69
538.995	3591.69
539.095	3559.69
539.194	3715.69
539.293	3570.69
539.392	3540.69
539.491	3464.69
539.59	3513.69
539.689	3669.69
539.789	3624.69
539.888	3408.69
539.987	3300.69
540.086	3480.69
540.185	3391.69
540.284	3468.69
540.383	3491.69
540.482	3318.69
540.581	3433.69
540.68	3424.69
540.779	3419.69
540.878	3374.69
540.977	3443.69
541.076	3337.69
541.175	3353.69
541.274	3604.69
541.373	3476.69
541.472	3366.69
541.571	3317.69
541.67	4473.69
541.769	3439.69
541.868	3335.69
541.966	3493.69
542.065	3387.69
542.164	3351.69
542.263	3393.69
542.362	3320.69
542.461	3377.69
542.56	3331.69
542.658	3435.69
542.757	3270.69
542.856	3218.69
542.955	3270.69
543.054	3179.69
543.152	3398.69
543.251	3302.69
543.35	3307.69
543.449	3279.69
543.547	3285.69
543.646	3210.69
543.745	3221.69
543.843	3354.69
543.942	3294.69
544.041	3201.69
544.14	3279.69
544.238	3310.69
544.337	3421.69
544.436	3317.69
544.534	3401.69
544.633	3281.69
544.731	3275.69
544.83	3361.69
544.929	3261.69
545.027	3227.69
545.126	3384.69
545.224	3305.69
545.323	3204.69
545.421	3258.69
545.52	3278.69
545.619	3291.69
545.717	3371.69
545.816	3354.69
545.914	3288.69
546.013	3463.69
546.111	3423.69
546.209	3223.69
546.308	3216.69
546.406	3294.69
546.505	3416.69
546.603	3310.69
546.702	3208.69
546.8	3245.69
546.899	3163.69
546.997	3259.69
547.095	3291.69
547.194	3327.69
547.292	3293.69
547.39	3409.69
547.489	3234.69
547.587	3470.69
547.685	3250.69
547.784	3512.69
547.882	3264.69
547.98	3218.69
548.079	3354.69
548.177	3168.69
548.275	3240.69
548.373	3452.69
548.472	3230.69
548.57	3327.69
548.668	3397.69
548.766	3222.69
548.864	3323.69
548.963	3331.69
549.061	3335.69
549.159	3218.69
549.257	3337.69
549.355	3331.69
549.454	3261.69
549.552	3385.69
549.65	3367.69
549.748	3243.69
549.846	3285.69
549.944	3260.69
550.042	3223.69
550.14	3264.69
550.238	3168.69
550.336	3126.69
550.434	3144.69
550.532	3232.69
550.631	3261.69
550.729	3180.69
550.827	3245.69
550.925	3221.69
551.023	3186.69
551.121	3151.69
551.218	3206.69
551.316	3093.69
551.414	3109.69
551.512	3136.69
551.61	3254.69
551.708	3312.69
551.806	3245.69
551.904	3217.69
552.002	3189.69
552.1	3282.69
552.198	3389.69
552.296	3379.69
552.393	3486.69
552.491	3621.69
552.589	3494.69
552.687	3587.69
552.785	3510.69
552.882	3591.69
552.98	3759.69
553.078	3729.69
553.176	3720.69
553.274	3448.69
553.371	3590.69
553.469	3651.69
553.567	3543.69
553.665	3510.69
553.762	3883.69
553.86	3552.69
553.958	3496.69
554.055	3413.69
554.153	3456.69
554.251	3265.69
554.348	3332.69
554.446	3235.69
554.544	3265.69
554.641	3588.69
554.739	3237.69
554.837	3207.69
554.934	3196.69
555.032	3211.69
555.129	3066.69
555.227	3394.69
555.324	7801.69
555.422	3462.69
555.519	3153.69
555.617	3102.69
555.715	3007.69
555.812	4384.69
555.91	3034.69
556.007	3032.69
556.105	2942.69
556.202	2964.69
556.299	2961.69
556.397	2960.69
556.494	2935.69
556.592	3008.69
556.689	3001.69
556.787	2920.69
556.884	2980.69
556.981	2890.69
557.079	2918.69
557.176	2883.69
557.273	2932.69
557.371	2986.69
557.468	2926.69
557.566	3010.69
557.663	2910.69
557.76	2891.69
557.857	2951.69
557.955	2914.69
558.052	2936.69
558.149	3077.69
558.247	3076.69
558.344	3003.69
558.441	2895.69
558.538	2907.69
558.636	2929.69
558.733	2975.69
558.83	2999.69
558.927	2846.69
559.024	2904.69
559.122	2906.69
559.219	2906.69
559.316	3032.69
559.413	3149.69
559.51	2931.69
559.607	2922.69
559.704	2978.69
559.801	2956.69
559.899	2945.69
559.996	3205.69
560.093	2909.69
560.19	2866.69
560.287	3014.69
560.384	3162.69
560.481	2939.69
560.578	2899.69
560.675	2906.69
560.772	3049.69
560.869	2996.69
560.966	3173.69
561.063	2987.69
561.16	2990.69
561.257	3075.69
561.354	2985.69
561.451	2930.69
561.548	3011.69
561.645	3173.69
561.742	3011.69
561.838	2969.69
561.935	3027.69
562.032	3054.69
562.129	2987.69
562.226	3083.69
562.323	2963.69
562.42	3074.69
562.516	3092.69
562.613	3044.69
562.71	3030.69
562.807	3672.69
562.904	3095.69
563	2979.69
563.097	3059.69
563.194	3113.69
563.291	3062.69
563.387	3121.69
563.484	3243.69
563.581	3099.69
563.678	3109.69
563.774	3440.69
563.871	3192.69
563.968	3144.69
564.064	3189.69
564.161	3278.69
564.258	3303.69
564.354	3336.69
564.451	3390.69
564.548	3409.69
564.644	3366.69
564.741	3448.69
564.837	3367.69
564.934	3392.69
565.031	3557.69
565.127	3518.69
565.224	3582.69
565.32	3730.69
565.417	3625.69
565.513	3780.69
565.61	3852.69
565.706	3986.69
565.803	3945.69
565.899	4074.69
565.996	4263.69
566.092	4159.69
566.189	4331.69
566.285	4577.69
566.382	4662.69
566.478	4833.69
566.574	4970.69
566.671	4934.69
566.767	4923.69
566.864	4932.69
566.96	4987.69
567.056	4995.69
567.153	5274.69
567.249	5431.69
567.345	5402.69
567.442	5593.69
567.538	5715.69
567.634	5690.69
567.731	5850.69
567.827	5912.69
567.923	5794.69
568.019	5457.69
568.116	5277.69
568.212	5032.69
568.308	4980.69
568.404	4822.69
568.501	4640.69
568.597	4427.69
568.693	4188.69
568.789	4757.69
568.885	3991.69
568.982	3887.69
569.078	3788.69
569.174	3775.69
569.27	3536.69
569.366	3667.69
569.462	3604.69
569.558	3390.69
569.655	3382.69
569.751	3444.69
569.847	3306.69
569.943	3241.69
570.039	3231.69
570.135	3673.69
570.231	3272.69
570.327	3432.69
570.423	3327.69
570.519	3271.69
570.615	3277.69
570.711	3409.69
570.807	3313.69
570.903	3230.69
570.999	3268.69
571.095	3217.69
571.191	3210.69
571.287	3221.69
571.383	3141.69
571.479	3040.69
571.574	3157.69
571.67	3059.69
571.766	3133.69
571.862	2917.69
571.958	2860.69
572.054	2975.69
572.15	2784.69
572.246	2754.69
572.341	2827.69
572.437	2757.69
572.533	2874.69
572.629	2733.69
572.725	2729.69
572.82	2725.69
572.916	2744.69
573.012	2662.69
573.108	2715.69
573.203	2641.69
573.299	2542.69
573.395	2580.69
573.49	2552.69
573.586	2531.69
573.682	2533.69
573.778	2803.69
573.873	2535.69
573.969	2507.69
574.065	2585.69
574.16	2514.69
574.256	2586.69
574.351	2619.69
574.447	2547.69
574.543	2510.69
574.638	2575.69
574.734	2585.69
574.829	2698.69
574.925	2460.69
575.02	2451.69
575.116	2433.69
575.212	2422.69
575.307	2560.69
575.403	2427.69
575.498	2437.69
575.594	2451.69
575.689	2442.69
575.784	2403.69
575.88	2409.69
575.975	2404.69
576.071	2267.69
576.166	2287.69
576.262	2390.69
576.357	2385.69
576.452	2468.69
576.548	2373.69
576.643	2266.69
576.739	2338.69
576.834	2333.69
576.929	2304.69
577.025	2455.69
577.12	2241.69
577.215	2183.69
577.311	2241.69
577.406	2271.69
577.501	2372.69
577.597	2078.69
577.692	2307.69
577.787	2352.69
577.882	2187.69
577.978	2193.69
578.073	2137.69
578.168	2074.69
578.263	2034.69
578.358	2089.69
578.454	2068.69
578.549	2009.69
578.644	2108.69
578.739	2067.69
578.834	2034.69
578.929	2012.69
579.025	2054.69
579.12	2065.69
579.215	2198.69
579.31	2173.69
579.405	1934.69
579.5	2094.69
579.595	2029.69
579.69	1924.69
579.785	1961.69
579.88	1951.69
579.975	2003.69
580.07	1917.69
580.165	1919.69
580.26	2066.69
580.355	1876.69
580.45	2017.69
580.545	1950.69
580.64	1861.69
580.735	2004.69
580.83	1927.69
580.925	1812.69
581.02	1776.69
581.115	1810.69
581.21	1820.69
581.305	1840.69
581.4	1839.69
581.495	1866.69
581.589	1737.69
581.684	1725.69
581.779	1922.69
581.874	1783.69
581.969	1871.69
582.064	1778.69
582.158	1767.69
582.253	1785.69
582.348	1778.69
582.443	1802.69
582.537	1782.69
582.632	1940.69
582.727	1794.69
582.822	1714.69
582.916	1694.69
583.011	1732.69
583.106	1746.69
583.201	1693.69
583.295	1797.69
583.39	1700.69
583.485	1661.69
583.579	3240.69
583.674	1870.69
583.769	1899.69
583.863	1687.69
583.958	1683.69
584.052	1572.69
584.147	1667.69
584.242	1678.69
584.336	1675.69
584.431	1802.69
584.525	1623.69
584.62	1779.69
584.714	1693.69
584.809	1669.69
584.903	1653.69
584.998	1707.69
585.092	1570.69
585.187	1632.69
585.281	1532.69
585.376	1599.69
585.47	1646.69
585.565	1602.69
585.659	1479.69
585.754	1647.69
585.848	1622.69
585.942	1563.69
586.037	1570.69
586.131	3489.69
586.226	1716.69
586.32	1626.69
586.414	1445.69
586.509	1553.69
586.603	1581.69
586.697	1543.69
586.792	1493.69
586.886	1490.69
586.98	1646.69
587.075	1538.69
587.169	1428.69
587.263	1671.69
587.357	1513.69
587.452	1486.69
587.546	1585.69
587.64	1449.69
587.734	1467.69
587.829	1484.69
587.923	1481.69
588.017	1457.69
588.111	1447.69
588.205	1620.69
588.3	1376.69
588.394	1370.69
588.488	1433.69
588.582	1453.69
588.676	1453.69
588.77	1462.69
588.864	1602.69
588.958	1510.69
589.052	1445.69
589.147	1551.69
589.241	1493.69
589.335	1443.69
589.429	1534.69
589.523	1456.69
589.617	1457.69
589.711	1573.69
589.805	1529.69
589.899	1539.69
589.993	1455.69
590.087	1303.69
590.181	1412.69
590.275	1476.69
590.369	1465.69
590.462	1316.69
590.556	1359.69
590.65	1423.69
590.744	1354.69
590.838	1337.69
590.932	1446.69
591.026	1455.69
591.12	1588.69
591.214	1502.69
591.307	1488.69
591.401	1426.69
591.495	1574.69
591.589	1469.69
591.683	1484.69
591.777	1603.69
591.87	1802.69
591.964	1530.69
592.058	1485.69
592.152	1626.69
592.245	1521.69
592.339	1642.69
592.433	1707.69
592.527	1661.69
592.62	1558.69
592.714	1710.69
592.808	1688.69
592.901	1647.69
592.995	1650.69
593.089	1932.69
593.182	1742.69
593.276	1678.69
593.37	1702.69
593.463	1625.69
593.557	1679.69
593.65	1696.69
593.744	1679.69
593.837	1806.69
593.931	1710.69
594.025	3800.69
594.118	1875.69
594.212	1687.69
594.305	1628.69
594.399	1651.69
594.492	1950.69
594.586	1636.69
594.679	1481.69
594.773	1505.69
594.866	1628.69
594.96	1520.69
595.053	1427.69
595.146	1474.69
595.24	1395.69
595.333	1349.69
595.427	1359.69
595.52	1363.69
595.614	1429.69
595.707	1344.69
595.8	1344.69
595.894	1287.69
595.987	1300.69
596.08	1272.69
596.174	1580.69
596.267	1342.69
596.36	1372.69
596.454	1337.69
596.547	1275.69
596.64	1272.69
596.733	1205.69
596.827	1291.69
596.92	1204.69
597.013	1121.69
597.106	1165.69
597.2	1173.69
597.293	1178.69
597.386	1328.69
597.479	1229.69
597.572	1249.69
597.666	1098.69
597.759	1140.69
597.852	1252.69
597.945	1113.69
598.038	1146.69
598.131	1131.69
598.224	1135.69
598.317	1247.69
598.411	1166.69
598.504	1139.69
598.597	1131.69
598.69	1107.69
598.783	1137.69
598.876	1084.69
598.969	1102.69
599.062	1112.69
599.155	1139.69
599.248	1041.69
599.341	1202.69
599.434	1080.69
599.527	1073.69
599.62	1045.69
599.713	1109.69
599.806	1167.69
599.899	1200.69
599.991	1106.69
600.084	1282.69
600.177	1096.69
600.27	1103.69
600.363	1178.69
600.456	1088.69
600.549	1123.69
600.642	998.69
600.734	1014.69
600.827	1053.69
600.92	1155.69
601.013	1083.69
601.106	1099.69
601.199	1024.69
601.291	991.69
601.384	1067.69
601.477	1258.69
601.57	1121.69
601.662	1050.69
601.755	1104.69
601.848	1063.69
601.94	1001.69
602.033	1159.69
602.126	1045.69
602.219	971.69
602.311	1118.69
602.404	1049.69
602.497	1001.69
602.589	998.69
602.682	1142.69
602.774	1031.69
602.867	1012.69
602.96	1034.69
603.052	1010.69
603.145	1000.69
603.237	1055.69
603.33	1006.69
603.422	1111.69
603.515	968.69
603.608	1090.69
603.7	1058.69
603.793	1031.69
603.885	1086.69
603.978	973.69
604.07	994.69
604.163	992.69
604.255	1027.69
604.347	974.69
604.44	978.69
604.532	1026.69
604.625	989.69
604.717	952.69
604.81	1076.69
604.902	998.69
604.994	965.69
605.087	1010.69
605.179	947.69
605.271	994.69
605.364	998.69
605.456	1013.69
605.548	958.69
605.641	992.69
605.733	981.69
605.825	977.69
605.918	963.69
606.01	1085.69
606.102	1350.69
606.194	1014.69
606.287	1137.69
606.379	954.69
606.471	1029.69
606.563	1067.69
606.655	963.69
606.748	1044.69
606.84	1002.69
606.932	1012.69
607.024	944.69
607.116	935.69
607.208	977.69
607.301	966.69
607.393	931.69
607.485	970.69
607.577	960.69
607.669	1038.69
607.761	1067.69
607.853	1181.69
607.945	912.69
608.037	946.69
608.129	911.69
608.221	860.69
608.313	933.69
608.405	1008.69
608.497	926.69
608.589	895.69
608.681	969.69
608.773	1003.69
608.865	950.69
608.957	993.69
609.049	886.69
609.141	1022.69
609.233	974.69
609.325	887.69
609.417	867.69
609.509	1003.69
609.601	1043.69
609.693	986.69
609.784	914.69
609.876	966.69
609.968	1006.69
610.06	2763.69
610.152	1161.69
610.244	1618.69
610.335	968.69
610.427	978.69
610.519	890.69
610.611	957.69
610.702	885.69
610.794	935.69
610.886	941.69
610.978	894.69
611.069	1315.69
611.161	892.69
611.253	882.69
611.344	899.69
611.436	803.69
611.528	858.69
611.62	822.69
611.711	769.69
611.803	733.69
611.894	760.69
611.986	810.69
612.078	828.69
612.169	803.69
612.261	762.69
612.352	676.69
612.444	687.69
612.536	891.69
612.627	693.69
612.719	622.69
612.81	694.69
612.902	607.69
612.993	683.69
613.085	670.69
613.176	589.69
613.268	629.69
613.359	628.69
613.451	612.69
613.542	635.69
613.634	588.69
613.725	640.69
613.816	636.69
613.908	551.69
613.999	568.69
614.091	472.69
614.182	468.69
614.273	594.69
614.365	454.69
614.456	469.69
614.547	474.69
614.639	418.69
614.73	396.69
614.821	505.69
614.913	388.69
615.004	346.69
615.095	364.69
615.187	375.69
