Data from sinsal_HRC06701__14__75.txt Node

Date: Thu Apr 18 01:41:17 CDT 2024
User: Estudiantes 2
Spectrometer: HR+C0670
Trigger mode: 4
Integration Time (sec): 1.000000E0
Scans to average: 1
Electric dark correction enabled: true
Nonlinearity correction enabled: false
Boxcar width: 0
XAxis mode: Wavelengths
Number of Pixels in Spectrum: 2048
>>>>>Begin Spectral Data<<<<<
407.81	-135.19
407.921	-135.19
408.032	-135.19
408.143	-116.19
408.254	-90.19
408.365	18.81
408.476	212.81
408.587	16.81
408.699	-2.19
408.81	-14.19
408.921	-27.19
409.032	-60.19
409.143	9.81
409.254	36.81
409.365	77.81
409.476	-49.19
409.587	27.81
409.698	93.81
409.809	36.81
409.92	-54.19
410.031	-4.19
410.142	31.81
410.253	-13.19
410.364	80.81
410.475	1212.81
410.585	5902.81
410.696	6447.81
410.807	6311.81
410.918	6275.81
411.029	6404.81
411.14	6356.81
411.251	6486.81
411.362	6431.81
411.472	6531.81
411.583	6418.81
411.694	6663.81
411.805	6593.81
411.916	6607.81
412.026	6603.81
412.137	6713.81
412.248	6607.81
412.359	6535.81
412.47	6366.81
412.58	6367.81
412.691	6450.81
412.802	6438.81
412.912	6422.81
413.023	6541.81
413.134	6288.81
413.245	6437.81
413.355	6356.81
413.466	6297.81
413.577	6404.81
413.687	6506.81
413.798	6267.81
413.909	6510.81
414.019	6587.81
414.13	6405.81
414.24	6412.81
414.351	6575.81
414.462	6708.81
414.572	6557.81
414.683	6551.81
414.793	6602.81
414.904	6814.81
415.014	6468.81
415.125	6434.81
415.235	6550.81
415.346	6573.81
415.456	6657.81
415.567	6411.81
415.677	6443.81
415.788	6556.81
415.898	6470.81
416.009	6450.81
416.119	6510.81
416.23	6483.81
416.34	6458.81
416.45	6553.81
416.561	6801.81
416.671	6470.81
416.782	6480.81
416.892	6593.81
417.002	6612.81
417.113	6744.81
417.223	6674.81
417.333	6596.81
417.444	6685.81
417.554	6850.81
417.664	6811.81
417.775	6571.81
417.885	6908.81
417.995	6838.81
418.106	7107.81
418.216	7012.81
418.326	7239.81
418.436	7198.81
418.547	7291.81
418.657	7337.81
418.767	7392.81
418.877	7421.81
418.987	7489.81
419.098	7449.81
419.208	7518.81
419.318	7608.81
419.428	7609.81
419.538	7368.81
419.648	7587.81
419.759	7399.81
419.869	7450.81
419.979	7468.81
420.089	7534.81
420.199	7416.81
420.309	7450.81
420.419	7529.81
420.529	7543.81
420.639	7501.81
420.749	7639.81
420.859	7628.81
420.969	7806.81
421.079	7945.81
421.189	7762.81
421.299	7725.81
421.409	7695.81
421.519	7780.81
421.629	7940.81
421.739	7979.81
421.849	7909.81
421.959	7946.81
422.069	8011.81
422.179	8115.81
422.289	8131.81
422.399	8313.81
422.509	8372.81
422.619	9643.81
422.729	8633.81
422.838	8499.81
422.948	8672.81
423.058	8653.81
423.168	8800.81
423.278	8959.81
423.388	8845.81
423.498	9138.81
423.607	9009.81
423.717	9407.81
423.827	9296.81
423.937	9198.81
424.046	9241.81
424.156	9407.81
424.266	9377.81
424.376	9516.81
424.485	9364.81
424.595	9391.81
424.705	9450.81
424.815	9467.81
424.924	9971.81
425.034	9583.81
425.144	9540.81
425.253	9452.81
425.363	9826.81
425.473	9757.81
425.582	9497.81
425.692	9854.81
425.801	9732.81
425.911	10052.81
426.021	9971.81
426.13	10177.81
426.24	10139.81
426.349	10160.81
426.459	10213.81
426.568	10202.81
426.678	10277.81
426.787	10394.81
426.897	10265.81
427.006	10446.81
427.116	10515.81
427.225	10331.81
427.335	10561.81
427.444	10582.81
427.554	10585.81
427.663	10758.81
427.773	10796.81
427.882	10986.81
427.992	10733.81
428.101	10828.81
428.21	10953.81
428.32	10980.81
428.429	10963.81
428.539	11385.81
428.648	11124.81
428.757	11207.81
428.867	11226.81
428.976	11526.81
429.085	11318.81
429.195	11377.81
429.304	11359.81
429.413	11480.81
429.523	11576.81
429.632	11658.81
429.741	11459.81
429.85	11602.81
429.96	11726.81
430.069	11730.81
430.178	11914.81
430.287	12162.81
430.397	12005.81
430.506	11886.81
430.615	12045.81
430.724	12076.81
430.833	12091.81
430.943	12156.81
431.052	12331.81
431.161	12271.81
431.27	12499.81
431.379	12596.81
431.488	13150.81
431.597	12975.81
431.706	13147.81
431.816	13049.81
431.925	12867.81
432.034	12975.81
432.143	13015.81
432.252	12831.81
432.361	12848.81
432.47	12996.81
432.579	12792.81
432.688	12695.81
432.797	12963.81
432.906	12705.81
433.015	12776.81
433.124	13242.81
433.233	13025.81
433.342	12831.81
433.451	13108.81
433.56	13139.81
433.669	13165.81
433.778	13204.81
433.886	13448.81
433.995	13229.81
434.104	13768.81
434.213	13734.81
434.322	13739.81
434.431	13909.81
434.54	14271.81
434.649	14503.81
434.757	14503.81
434.866	14332.81
434.975	14284.81
435.084	13921.81
435.193	13687.81
435.301	13622.81
435.41	13488.81
435.519	13622.81
435.628	12890.81
435.737	12831.81
435.845	12735.81
435.954	12409.81
436.063	12415.81
436.171	12533.81
436.28	12424.81
436.389	12640.81
436.498	12362.81
436.606	12699.81
436.715	12489.81
436.823	12250.81
436.932	12047.81
437.041	12058.81
437.149	11881.81
437.258	11774.81
437.367	11571.81
437.475	11808.81
437.584	11844.81
437.692	11642.81
437.801	12767.81
437.91	11582.81
438.018	11376.81
438.127	11365.81
438.235	11316.81
438.344	11472.81
438.452	11449.81
438.561	11262.81
438.669	11345.81
438.778	11257.81
438.886	11219.81
438.995	11146.81
439.103	11434.81
439.212	11243.81
439.32	11437.81
439.428	11338.81
439.537	11342.81
439.645	11539.81
439.754	11582.81
439.862	11365.81
439.97	11402.81
440.079	11545.81
440.187	11485.81
440.295	11564.81
440.404	11538.81
440.512	11758.81
440.62	11751.81
440.729	11818.81
440.837	11968.81
440.945	12541.81
441.054	12224.81
441.162	12275.81
441.27	12645.81
441.378	12858.81
441.487	12898.81
441.595	13315.81
441.703	12965.81
441.811	12548.81
441.92	12717.81
442.028	12110.81
442.136	12448.81
442.244	12420.81
442.352	12299.81
442.461	12080.81
442.569	12081.81
442.677	12270.81
442.785	12362.81
442.893	12197.81
443.001	12244.81
443.109	12150.81
443.217	12274.81
443.325	12286.81
443.434	13023.81
443.542	12849.81
443.65	12691.81
443.758	12710.81
443.866	12680.81
443.974	13174.81
444.082	13232.81
444.19	13440.81
444.298	13738.81
444.406	14108.81
444.514	14370.81
444.622	14503.81
444.73	14503.81
444.838	14179.81
444.946	13994.81
445.054	13584.81
445.161	13490.81
445.269	13168.81
445.377	13065.81
445.485	12910.81
445.593	12552.81
445.701	12672.81
445.809	12593.81
445.917	12427.81
446.025	12551.81
446.132	12659.81
446.24	12504.81
446.348	12601.81
446.456	12414.81
446.564	12287.81
446.671	12457.81
446.779	12344.81
446.887	12345.81
446.995	12069.81
447.102	12381.81
447.21	12164.81
447.318	12253.81
447.426	12094.81
447.533	12500.81
447.641	13290.81
447.749	12205.81
447.856	12228.81
447.964	12145.81
448.072	12196.81
448.179	12055.81
448.287	12228.81
448.395	12201.81
448.502	12109.81
448.61	12288.81
448.718	12117.81
448.825	12226.81
448.933	12342.81
449.04	12285.81
449.148	12488.81
449.256	12498.81
449.363	12389.81
449.471	12574.81
449.578	12812.81
449.686	12721.81
449.793	12894.81
449.901	12891.81
450.008	13053.81
450.116	13034.81
450.223	13086.81
450.331	13518.81
450.438	13555.81
450.546	13494.81
450.653	13684.81
450.76	14016.81
450.868	13951.81
450.975	14142.81
451.083	13987.81
451.19	14156.81
451.297	13986.81
451.405	14175.81
451.512	14349.81
451.619	14282.81
451.727	14412.81
451.834	14199.81
451.941	14456.81
452.049	14348.81
452.156	14503.81
452.263	14503.81
452.371	14503.81
452.478	14503.81
452.585	14503.81
452.692	14503.81
452.8	14503.81
452.907	14503.81
453.014	14503.81
453.121	14503.81
453.229	14503.81
453.336	14503.81
453.443	14503.81
453.55	14503.81
453.657	14503.81
453.765	14503.81
453.872	14503.81
453.979	14503.81
454.086	14503.81
454.193	14503.81
454.3	14503.81
454.407	14503.81
454.514	14503.81
454.621	14503.81
454.729	14503.81
454.836	14503.81
454.943	14503.81
455.05	14503.81
455.157	14503.81
455.264	14503.81
455.371	14503.81
455.478	14503.81
455.585	14503.81
455.692	14503.81
455.799	14503.81
455.906	14503.81
456.013	14503.81
456.12	14503.81
456.227	14503.81
456.334	14503.81
456.44	14503.81
456.547	14503.81
456.654	14503.81
456.761	14503.81
456.868	14503.81
456.975	14503.81
457.082	14503.81
457.189	14503.81
457.296	14503.81
457.402	14503.81
457.509	14503.81
457.616	14503.81
457.723	14503.81
457.83	14503.81
457.936	14503.81
458.043	14503.81
458.15	14503.81
458.257	14503.81
458.363	14503.81
458.47	14503.81
458.577	14503.81
458.684	14503.81
458.79	14503.81
458.897	14503.81
459.004	14503.81
459.11	14503.81
459.217	14503.81
459.324	14503.81
459.43	14503.81
459.537	14503.81
459.644	14503.81
459.75	14503.81
459.857	14503.81
459.964	14503.81
460.07	14503.81
460.177	14503.81
460.283	14503.81
460.39	14503.81
460.496	14503.81
460.603	14503.81
460.71	14503.81
460.816	14503.81
460.923	14503.81
461.029	14503.81
461.136	14503.81
461.242	14503.81
461.349	14503.81
461.455	14503.81
461.562	14503.81
461.668	14503.81
461.774	14503.81
461.881	14503.81
461.987	14503.81
462.094	14503.81
462.2	14503.81
462.307	14503.81
462.413	14503.81
462.519	14503.81
462.626	14503.81
462.732	14503.81
462.838	14503.81
462.945	14503.81
463.051	14503.81
463.157	14503.81
463.264	14503.81
463.37	14503.81
463.476	14503.81
463.583	14503.81
463.689	14503.81
463.795	14503.81
463.901	14503.81
464.008	14503.81
464.114	14503.81
464.22	14503.81
464.326	14503.81
464.433	14503.81
464.539	14503.81
464.645	14503.81
464.751	14503.81
464.857	14503.81
464.963	14503.81
465.07	14503.81
465.176	14503.81
465.282	14503.81
465.388	14503.81
465.494	14503.81
465.6	14503.81
465.706	14503.81
465.812	14503.81
465.918	14503.81
466.024	14503.81
466.131	14503.81
466.237	14503.81
466.343	14503.81
466.449	14503.81
466.555	14503.81
466.661	14503.81
466.767	14503.81
466.873	14503.81
466.979	14503.81
467.085	14503.81
467.191	14503.81
467.296	14503.81
467.402	14503.81
467.508	14503.81
467.614	14503.81
467.72	14503.81
467.826	14503.81
467.932	14503.81
468.038	14503.81
468.144	14503.81
468.25	14503.81
468.355	14503.81
468.461	14503.81
468.567	14503.81
468.673	14503.81
468.779	14503.81
468.885	14503.81
468.99	14503.81
469.096	14503.81
469.202	14503.81
469.308	14503.81
469.413	14503.81
469.519	14503.81
469.625	14503.81
469.731	14503.81
469.836	14503.81
469.942	14503.81
470.048	14503.81
470.153	14503.81
470.259	14503.81
470.365	14503.81
470.47	14503.81
470.576	14503.81
470.682	14503.81
470.787	14503.81
470.893	14503.81
470.999	14503.81
471.104	14378.81
471.21	14021.81
471.315	13933.81
471.421	13643.81
471.527	13747.81
471.632	13652.81
471.738	13569.81
471.843	13494.81
471.949	13198.81
472.054	13247.81
472.16	13052.81
472.265	12986.81
472.371	13163.81
472.476	12827.81
472.582	13012.81
472.687	12750.81
472.793	12523.81
472.898	12502.81
473.003	12518.81
473.109	12418.81
473.214	12322.81
473.32	12367.81
473.425	12424.81
473.53	12384.81
473.636	12300.81
473.741	12312.81
473.847	12353.81
473.952	12289.81
474.057	12297.81
474.163	12342.81
474.268	12280.81
474.373	12353.81
474.478	12212.81
474.584	12282.81
474.689	12161.81
474.794	12252.81
474.9	12389.81
475.005	12175.81
475.11	12404.81
475.215	12244.81
475.321	12201.81
475.426	12454.81
475.531	12320.81
475.636	12322.81
475.741	12289.81
475.846	12524.81
475.952	12567.81
476.057	12472.81
476.162	12530.81
476.267	12704.81
476.372	12830.81
476.477	12673.81
476.582	12810.81
476.687	12562.81
476.793	12866.81
476.898	12702.81
477.003	12857.81
477.108	12974.81
477.213	13032.81
477.318	13133.81
477.423	13346.81
477.528	13500.81
477.633	13464.81
477.738	13713.81
477.843	13778.81
477.948	13941.81
478.053	13933.81
478.158	14078.81
478.263	14104.81
478.368	14221.81
478.473	14503.81
478.578	14503.81
478.682	14503.81
478.787	14503.81
478.892	14503.81
478.997	14503.81
479.102	14503.81
479.207	14503.81
479.312	14503.81
479.417	14503.81
479.521	14503.81
479.626	14503.81
479.731	14503.81
479.836	14503.81
479.941	14503.81
480.045	14503.81
480.15	14503.81
480.255	14503.81
480.36	14503.81
480.465	14503.81
480.569	14503.81
480.674	14503.81
480.779	14503.81
480.883	14503.81
480.988	14503.81
481.093	14503.81
481.197	14503.81
481.302	14503.81
481.407	14503.81
481.511	14503.81
481.616	14503.81
481.721	14503.81
481.825	14503.81
481.93	14503.81
482.035	14503.81
482.139	14503.81
482.244	14503.81
482.348	14503.81
482.453	14503.81
482.557	14503.81
482.662	14503.81
482.767	14503.81
482.871	14503.81
482.976	14503.81
483.08	14503.81
483.185	14503.81
483.289	14503.81
483.394	14503.81
483.498	14503.81
483.603	14503.81
483.707	14503.81
483.811	14503.81
483.916	14503.81
484.02	14503.81
484.125	14503.81
484.229	14503.81
484.333	14503.81
484.438	14503.81
484.542	14503.81
484.647	14503.81
484.751	14503.81
484.855	14503.81
484.96	14503.81
485.064	14503.81
485.168	14503.81
485.273	14503.81
485.377	14503.81
485.481	14503.81
485.585	14503.81
485.69	14503.81
485.794	14503.81
485.898	14503.81
486.002	14503.81
486.107	14503.81
486.211	14503.81
486.315	14503.81
486.419	14503.81
486.524	14503.81
486.628	14503.81
486.732	14503.81
486.836	14503.81
486.94	14503.81
487.044	14503.81
487.148	14503.81
487.253	14503.81
487.357	14503.81
487.461	14503.81
487.565	14503.81
487.669	14503.81
487.773	14503.81
487.877	14503.81
487.981	14503.81
488.085	14503.81
488.189	14503.81
488.293	14503.81
488.397	14503.81
488.501	14503.81
488.605	14503.81
488.709	14503.81
488.813	14503.81
488.917	14503.81
489.021	14503.81
489.125	14503.81
489.229	14503.81
489.333	14503.81
489.437	14503.81
489.541	14503.81
489.645	14503.81
489.749	14503.81
489.853	14503.81
489.956	14503.81
490.06	14503.81
490.164	14503.81
490.268	14503.81
490.372	14503.81
490.476	14503.81
490.579	14503.81
490.683	14503.81
490.787	14503.81
490.891	14503.81
490.995	14503.81
491.098	14503.81
491.202	14503.81
491.306	14503.81
491.41	14503.81
491.513	14503.81
491.617	14503.81
491.721	14503.81
491.824	14503.81
491.928	14503.81
492.032	14503.81
492.136	14503.81
492.239	14503.81
492.343	14503.81
492.446	14503.81
492.55	14503.81
492.654	14503.81
492.757	14503.81
492.861	14503.81
492.965	14503.81
493.068	14503.81
493.172	14503.81
493.275	14503.81
493.379	14503.81
493.482	14503.81
493.586	14503.81
493.689	14503.81
493.793	14503.81
493.896	14503.81
494	14503.81
494.103	14503.81
494.207	14503.81
494.31	14503.81
494.414	14503.81
494.517	14503.81
494.621	14503.81
494.724	14503.81
494.828	14503.81
494.931	14503.81
495.034	14503.81
495.138	14503.81
495.241	14503.81
495.345	14503.81
495.448	14503.81
495.551	14503.81
495.655	14503.81
495.758	14503.81
495.861	14503.81
495.965	14503.81
496.068	14503.81
496.171	14503.81
496.274	14503.81
496.378	14503.81
496.481	14503.81
496.584	14503.81
496.687	14503.81
496.791	14503.81
496.894	14503.81
496.997	14503.81
497.1	14503.81
497.204	14503.81
497.307	14503.81
497.41	14503.81
497.513	14503.81
497.616	14503.81
497.719	14503.81
497.823	14503.81
497.926	14503.81
498.029	14503.81
498.132	14503.81
498.235	14503.81
498.338	14503.81
498.441	14503.81
498.544	14503.81
498.647	14503.81
498.75	14503.81
498.853	14503.81
498.956	14503.81
499.059	14503.81
499.163	14503.81
499.266	14503.81
499.369	14503.81
499.471	14503.81
499.574	14503.81
499.677	14503.81
499.78	14503.81
499.883	14503.81
499.986	14503.81
500.089	14503.81
500.192	14503.81
500.295	14503.81
500.398	14503.81
500.501	14503.81
500.604	14503.81
500.707	14503.81
500.809	14503.81
500.912	14503.81
501.015	14503.81
501.118	14503.81
501.221	14503.81
501.324	14503.81
501.426	14503.81
501.529	14503.81
501.632	14503.81
501.735	14503.81
501.837	14503.81
501.94	14503.81
502.043	14503.81
502.146	14503.81
502.248	14503.81
502.351	14503.81
502.454	14503.81
502.557	14503.81
502.659	14503.81
502.762	14503.81
502.865	14503.81
502.967	14503.81
503.07	14503.81
503.173	14503.81
503.275	14503.81
503.378	14503.81
503.48	14503.81
503.583	14503.81
503.686	14503.81
503.788	14503.81
503.891	14503.81
503.993	14503.81
504.096	14503.81
504.198	14503.81
504.301	14503.81
504.403	14503.81
504.506	14503.81
504.608	14503.81
504.711	14503.81
504.813	14503.81
504.916	14503.81
505.018	14503.81
505.121	14503.81
505.223	14503.81
505.326	14503.81
505.428	14503.81
505.531	14426.81
505.633	14260.81
505.735	14086.81
505.838	14088.81
505.94	13828.81
506.042	13871.81
506.145	13740.81
506.247	13753.81
506.35	13589.81
506.452	13575.81
506.554	13501.81
506.656	13361.81
506.759	13326.81
506.861	13188.81
506.963	13148.81
507.066	13105.81
507.168	13104.81
507.27	12914.81
507.372	12778.81
507.475	12668.81
507.577	12883.81
507.679	12781.81
507.781	12548.81
507.883	12610.81
507.986	12546.81
508.088	12380.81
508.19	12401.81
508.292	12367.81
508.394	12376.81
508.496	12302.81
508.598	12243.81
508.701	12308.81
508.803	12179.81
508.905	12180.81
509.007	12123.81
509.109	12076.81
509.211	12162.81
509.313	12146.81
509.415	11970.81
509.517	12077.81
509.619	11980.81
509.721	12086.81
509.823	11928.81
509.925	12045.81
510.027	11912.81
510.129	11859.81
510.231	12093.81
510.333	11839.81
510.435	11934.81
510.537	11956.81
510.639	11966.81
510.741	11722.81
510.843	11761.81
510.945	11791.81
511.047	11818.81
511.148	11916.81
511.25	11932.81
511.352	11793.81
511.454	11793.81
511.556	11904.81
511.658	11939.81
511.76	12015.81
511.861	12227.81
511.963	11862.81
512.065	11734.81
512.167	11862.81
512.268	12226.81
512.37	11901.81
512.472	12027.81
512.574	11980.81
512.676	12040.81
512.777	11766.81
512.879	12017.81
512.981	11920.81
513.082	11934.81
513.184	12048.81
513.286	12406.81
513.387	12012.81
513.489	12116.81
513.591	12207.81
513.692	12300.81
513.794	12200.81
513.896	12165.81
513.997	12113.81
514.099	12168.81
514.2	12438.81
514.302	12365.81
514.404	12288.81
514.505	12489.81
514.607	12607.81
514.708	12694.81
514.81	12574.81
514.911	12836.81
515.013	12908.81
515.114	12874.81
515.216	13004.81
515.317	13171.81
515.419	13057.81
515.52	13267.81
515.622	13369.81
515.723	13381.81
515.825	13814.81
515.926	13704.81
516.027	13769.81
516.129	14042.81
516.23	14334.81
516.332	14223.81
516.433	14503.81
516.534	14503.81
516.636	14503.81
516.737	14503.81
516.838	14503.81
516.94	14503.81
517.041	14503.81
517.142	14503.81
517.244	14503.81
517.345	14503.81
517.446	14503.81
517.547	14503.81
517.649	14503.81
517.75	14503.81
517.851	14503.81
517.952	14503.81
518.054	14503.81
518.155	14503.81
518.256	14503.81
518.357	14503.81
518.458	14503.81
518.56	14503.81
518.661	14503.81
518.762	14503.81
518.863	14503.81
518.964	14503.81
519.065	14503.81
519.166	14503.81
519.268	14503.81
519.369	14503.81
519.47	14503.81
519.571	14244.81
519.672	14205.81
519.773	14122.81
519.874	14160.81
519.975	14063.81
520.076	14018.81
520.177	14146.81
520.278	14003.81
520.379	13813.81
520.48	13742.81
520.581	13745.81
520.682	13819.81
520.783	13723.81
520.884	13846.81
520.985	13755.81
521.086	13638.81
521.187	13755.81
521.288	13585.81
521.389	13478.81
521.489	13488.81
521.59	13347.81
521.691	13435.81
521.792	13481.81
521.893	13546.81
521.994	13517.81
522.095	13495.81
522.195	13387.81
522.296	13394.81
522.397	13348.81
522.498	13324.81
522.599	13305.81
522.699	13408.81
522.8	13389.81
522.901	13448.81
523.002	13474.81
523.102	13651.81
523.203	13380.81
523.304	13554.81
523.405	13376.81
523.505	13147.81
523.606	13361.81
523.707	13292.81
523.807	13301.81
523.908	13377.81
524.009	13477.81
524.109	13600.81
524.21	13386.81
524.31	13569.81
524.411	13604.81
524.512	13586.81
524.612	13466.81
524.713	13738.81
524.813	13504.81
524.914	13720.81
525.014	14503.81
525.115	13745.81
525.216	13370.81
525.316	13616.81
525.417	13465.81
525.517	13528.81
525.618	13432.81
525.718	13403.81
525.819	13472.81
525.919	13339.81
526.019	13529.81
526.12	13404.81
526.22	13402.81
526.321	13345.81
526.421	13262.81
526.522	13378.81
526.622	13341.81
526.722	13368.81
526.823	13418.81
526.923	13491.81
527.023	13502.81
527.124	13414.81
527.224	13437.81
527.324	13445.81
527.425	13345.81
527.525	13330.81
527.625	13403.81
527.726	13459.81
527.826	13371.81
527.926	13486.81
528.026	13251.81
528.127	13062.81
528.227	13476.81
528.327	13375.81
528.427	13309.81
528.528	13442.81
528.628	13499.81
528.728	13214.81
528.828	13290.81
528.928	13359.81
529.029	13077.81
529.129	13186.81
529.229	13248.81
529.329	13082.81
529.429	13179.81
529.529	13351.81
529.629	13263.81
529.729	13065.81
529.829	13256.81
529.93	13038.81
530.03	13112.81
530.13	13042.81
530.23	13059.81
530.33	13163.81
530.43	13133.81
530.53	12969.81
530.63	12938.81
530.73	12936.81
530.83	12662.81
530.93	12831.81
531.03	12932.81
531.13	13037.81
531.23	12945.81
531.33	12772.81
531.429	12860.81
531.529	12880.81
531.629	12793.81
531.729	12625.81
531.829	12900.81
531.929	12819.81
532.029	12744.81
532.129	12691.81
532.229	12732.81
532.328	12728.81
532.428	12622.81
532.528	12606.81
532.628	12389.81
532.728	12458.81
532.827	12231.81
532.927	12394.81
533.027	12306.81
533.127	12547.81
533.227	12357.81
533.326	12312.81
533.426	12119.81
533.526	12333.81
533.625	12265.81
533.725	12377.81
533.825	12240.81
533.924	11931.81
534.024	11937.81
534.124	11986.81
534.223	11897.81
534.323	12239.81
534.423	11980.81
534.522	11702.81
534.622	11637.81
534.722	11690.81
534.821	11626.81
534.921	11490.81
535.02	11551.81
535.12	11489.81
535.219	11538.81
535.319	11548.81
535.419	11498.81
535.518	11267.81
535.618	11241.81
535.717	11303.81
535.817	10995.81
535.916	11050.81
536.016	11175.81
536.115	10890.81
536.215	11045.81
536.314	10744.81
536.413	10808.81
536.513	10786.81
536.612	10661.81
536.712	10621.81
536.811	10703.81
536.91	10506.81
537.01	10446.81
537.109	10518.81
537.209	10574.81
537.308	10443.81
537.407	10470.81
537.507	10513.81
537.606	10357.81
537.705	10492.81
537.805	10241.81
537.904	10176.81
538.003	10275.81
538.102	10319.81
538.202	10271.81
538.301	10182.81
538.4	10204.81
538.499	10192.81
538.599	10185.81
538.698	10318.81
538.797	10086.81
538.896	9996.81
538.995	9994.81
539.095	9916.81
539.194	9991.81
539.293	9880.81
539.392	9879.81
539.491	9789.81
539.59	9800.81
539.689	9901.81
539.789	9887.81
539.888	9658.81
539.987	9566.81
540.086	9596.81
540.185	9604.81
540.284	9529.81
540.383	9568.81
540.482	9496.81
540.581	9477.81
540.68	9539.81
540.779	9539.81
540.878	9422.81
540.977	9340.81
541.076	9392.81
541.175	9501.81
541.274	9442.81
541.373	9261.81
541.472	9411.81
541.571	9134.81
541.67	10400.81
541.769	9391.81
541.868	9238.81
541.966	9234.81
542.065	9018.81
542.164	9296.81
542.263	9144.81
542.362	9038.81
542.461	9202.81
542.56	9036.81
542.658	9146.81
542.757	9022.81
542.856	8887.81
542.955	8956.81
543.054	8972.81
543.152	9118.81
543.251	8867.81
543.35	9208.81
543.449	8940.81
543.547	8873.81
543.646	8953.81
543.745	9043.81
543.843	8981.81
543.942	8983.81
544.041	9052.81
544.14	9063.81
544.238	8939.81
544.337	9197.81
544.436	9095.81
544.534	9100.81
544.633	9052.81
544.731	9015.81
544.83	9117.81
544.929	9121.81
545.027	9152.81
545.126	9010.81
545.224	9188.81
545.323	9082.81
545.421	9026.81
545.52	9186.81
545.619	9160.81
545.717	9000.81
545.816	9098.81
545.914	9178.81
546.013	9110.81
546.111	9106.81
546.209	8991.81
546.308	8977.81
546.406	8883.81
546.505	9160.81
546.603	9159.81
546.702	8952.81
546.8	8854.81
546.899	8902.81
546.997	8904.81
547.095	8843.81
547.194	8915.81
547.292	8885.81
547.39	8996.81
547.489	8992.81
547.587	9327.81
547.685	8889.81
547.784	9292.81
547.882	9107.81
547.98	8901.81
548.079	9091.81
548.177	9033.81
548.275	8985.81
548.373	9129.81
548.472	8940.81
548.57	9039.81
548.668	9040.81
548.766	8934.81
548.864	9089.81
548.963	8976.81
549.061	9257.81
549.159	8996.81
549.257	9085.81
549.355	9180.81
549.454	9193.81
549.552	9217.81
549.65	9148.81
549.748	9208.81
549.846	8998.81
549.944	8955.81
550.042	9046.81
550.14	9012.81
550.238	8997.81
550.336	8850.81
550.434	8815.81
550.532	8816.81
550.631	8961.81
550.729	8896.81
550.827	8873.81
550.925	8749.81
551.023	8721.81
551.121	8717.81
551.218	8702.81
551.316	8783.81
551.414	8813.81
551.512	8832.81
551.61	8900.81
551.708	8977.81
551.806	8882.81
551.904	8964.81
552.002	9105.81
552.1	9135.81
552.198	9172.81
552.296	9437.81
552.393	9427.81
552.491	9563.81
552.589	9683.81
552.687	9714.81
552.785	9715.81
552.882	9904.81
552.98	10073.81
553.078	9941.81
553.176	10057.81
553.274	9940.81
553.371	9887.81
553.469	9997.81
553.567	9809.81
553.665	9569.81
553.762	9933.81
553.86	9569.81
553.958	9588.81
554.055	9370.81
554.153	9297.81
554.251	9244.81
554.348	9101.81
554.446	9118.81
554.544	9072.81
554.641	9231.81
554.739	8959.81
554.837	9051.81
554.934	8885.81
555.032	8748.81
555.129	8749.81
555.227	9005.81
555.324	11425.81
555.422	8725.81
555.519	8505.81
555.617	8444.81
555.715	8342.81
555.812	9974.81
555.91	8379.81
556.007	8298.81
556.105	8390.81
556.202	8284.81
556.299	8222.81
556.397	8286.81
556.494	8193.81
556.592	8193.81
556.689	8283.81
556.787	8118.81
556.884	8077.81
556.981	8154.81
557.079	8098.81
557.176	8206.81
557.273	8133.81
557.371	8219.81
557.468	8041.81
557.566	8077.81
557.663	8106.81
557.76	8223.81
557.857	8048.81
557.955	8189.81
558.052	8190.81
558.149	8167.81
558.247	8225.81
558.344	8067.81
558.441	8033.81
558.538	8014.81
558.636	8185.81
558.733	8147.81
558.83	8039.81
558.927	8300.81
559.024	8141.81
559.122	8046.81
559.219	8035.81
559.316	8165.81
559.413	8141.81
559.51	8048.81
559.607	8135.81
559.704	8235.81
559.801	8303.81
559.899	8083.81
559.996	8321.81
560.093	8138.81
560.19	8256.81
560.287	8102.81
560.384	8284.81
560.481	8227.81
560.578	8182.81
560.675	8157.81
560.772	8248.81
560.869	8300.81
560.966	8402.81
561.063	8297.81
561.16	8432.81
561.257	8346.81
561.354	8262.81
561.451	8289.81
561.548	8279.81
561.645	8520.81
561.742	8382.81
561.838	8348.81
561.935	8295.81
562.032	8361.81
562.129	8302.81
562.226	8436.81
562.323	8422.81
562.42	8517.81
562.516	8353.81
562.613	8498.81
562.71	8582.81
562.807	9176.81
562.904	8515.81
563	8716.81
563.097	8661.81
563.194	8699.81
563.291	8608.81
563.387	8653.81
563.484	8827.81
563.581	8724.81
563.678	8750.81
563.774	9092.81
563.871	8986.81
563.968	8989.81
564.064	8988.81
564.161	9009.81
564.258	9087.81
564.354	9216.81
564.451	9358.81
564.548	9432.81
564.644	9395.81
564.741	9406.81
564.837	9462.81
564.934	9676.81
565.031	9751.81
565.127	9926.81
565.224	10182.81
565.32	10277.81
565.417	10342.81
565.513	10670.81
565.61	10780.81
565.706	11003.81
565.803	11128.81
565.899	11494.81
565.996	11725.81
566.092	11979.81
566.189	12368.81
566.285	12736.81
566.382	13139.81
566.478	13732.81
566.574	13910.81
566.671	13954.81
566.767	13947.81
566.864	13968.81
566.96	14047.81
567.056	14115.81
567.153	14503.81
567.249	14503.81
567.345	14503.81
567.442	14503.81
567.538	14503.81
567.634	14503.81
567.731	14503.81
567.827	14503.81
567.923	14503.81
568.019	14503.81
568.116	14503.81
568.212	14330.81
568.308	13899.81
568.404	13281.81
568.501	12940.81
568.597	12602.81
568.693	12098.81
568.789	12098.81
568.885	11222.81
568.982	11140.81
569.078	10703.81
569.174	10577.81
569.27	10398.81
569.366	10270.81
569.462	10005.81
569.558	9802.81
569.655	9729.81
569.751	9431.81
569.847	9508.81
569.943	9396.81
570.039	9304.81
570.135	9703.81
570.231	9297.81
570.327	9365.81
570.423	9366.81
570.519	9274.81
570.615	9084.81
570.711	9290.81
570.807	9512.81
570.903	9153.81
570.999	9113.81
571.095	9130.81
571.191	8939.81
571.287	8862.81
571.383	8802.81
571.479	8560.81
571.574	8499.81
571.67	8309.81
571.766	8470.81
571.862	8182.81
571.958	8008.81
572.054	8134.81
572.15	7868.81
572.246	7705.81
572.341	7920.81
572.437	7750.81
572.533	7715.81
572.629	7747.81
572.725	7652.81
572.82	7587.81
572.916	7651.81
573.012	7677.81
573.108	7532.81
573.203	7507.81
573.299	7471.81
573.395	7330.81
573.49	7255.81
573.586	7326.81
573.682	7252.81
573.778	7374.81
573.873	7164.81
573.969	7104.81
574.065	7035.81
574.16	7172.81
574.256	7180.81
574.351	7179.81
574.447	7030.81
574.543	7179.81
574.638	7083.81
574.734	7134.81
574.829	7345.81
574.925	6893.81
575.02	6960.81
575.116	6944.81
575.212	6865.81
575.307	6892.81
575.403	6729.81
575.498	6724.81
575.594	6636.81
575.689	6683.81
575.784	6676.81
575.88	6528.81
575.975	6563.81
576.071	6576.81
576.166	6484.81
576.262	6451.81
576.357	6439.81
576.452	6594.81
576.548	6467.81
576.643	6400.81
576.739	6510.81
576.834	6416.81
576.929	6371.81
577.025	6875.81
577.12	6166.81
577.215	6110.81
577.311	6287.81
577.406	6256.81
577.501	6224.81
577.597	6121.81
577.692	6226.81
577.787	6076.81
577.882	5996.81
577.978	6015.81
578.073	5977.81
578.168	5817.81
578.263	5925.81
578.358	5882.81
578.454	5729.81
578.549	5900.81
578.644	5667.81
578.739	5822.81
578.834	5748.81
578.929	5570.81
579.025	5585.81
579.12	5730.81
579.215	5814.81
579.31	5710.81
579.405	5556.81
579.5	5688.81
579.595	5594.81
579.69	5420.81
579.785	5486.81
579.88	5311.81
579.975	5460.81
580.07	5366.81
580.165	5380.81
580.26	5358.81
580.355	5429.81
580.45	5388.81
580.545	5278.81
580.64	5191.81
580.735	5378.81
580.83	5232.81
580.925	5091.81
581.02	5141.81
581.115	5149.81
581.21	5040.81
581.305	5226.81
581.4	5024.81
581.495	5063.81
581.589	5025.81
581.684	5024.81
581.779	4993.81
581.874	4996.81
581.969	5191.81
582.064	4953.81
582.158	4932.81
582.253	4918.81
582.348	4901.81
582.443	4813.81
582.537	4908.81
582.632	5054.81
582.727	4846.81
582.822	4889.81
582.916	4834.81
583.011	4793.81
583.106	4841.81
583.201	4753.81
583.295	4732.81
583.39	4671.81
583.485	4591.81
583.579	6214.81
583.674	4731.81
583.769	4986.81
583.863	4577.81
583.958	4606.81
584.052	4609.81
584.147	4573.81
584.242	4509.81
584.336	4682.81
584.431	4835.81
584.525	4507.81
584.62	4727.81
584.714	4638.81
584.809	4594.81
584.903	4560.81
584.998	4526.81
585.092	4377.81
585.187	4465.81
585.281	4491.81
585.376	4389.81
585.47	4502.81
585.565	4411.81
585.659	4302.81
585.754	4366.81
585.848	4367.81
585.942	4340.81
586.037	4353.81
586.131	6229.81
586.226	4466.81
586.32	4299.81
586.414	4229.81
586.509	4403.81
586.603	4341.81
586.697	4275.81
586.792	4291.81
586.886	4184.81
586.98	4248.81
587.075	4235.81
587.169	4214.81
587.263	4294.81
587.357	4159.81
587.452	4177.81
587.546	4197.81
587.64	3998.81
587.734	4172.81
587.829	4080.81
587.923	3925.81
588.017	3985.81
588.111	4104.81
588.205	4146.81
588.3	4043.81
588.394	3984.81
588.488	3991.81
588.582	4064.81
588.676	4171.81
588.77	4061.81
588.864	4188.81
588.958	4225.81
589.052	4095.81
589.147	4168.81
589.241	4148.81
589.335	4078.81
589.429	4122.81
589.523	4128.81
589.617	4106.81
589.711	4083.81
589.805	4092.81
589.899	4214.81
589.993	4014.81
590.087	3941.81
590.181	4002.81
590.275	4084.81
590.369	3927.81
590.462	3979.81
590.556	3978.81
590.65	3939.81
590.744	4016.81
590.838	3907.81
590.932	4009.81
591.026	4146.81
591.12	4246.81
591.214	4125.81
591.307	4083.81
591.401	4130.81
591.495	4170.81
591.589	4138.81
591.683	4235.81
591.777	4195.81
591.87	4564.81
591.964	4309.81
592.058	4283.81
592.152	4403.81
592.245	4329.81
592.339	4452.81
592.433	4463.81
592.527	4525.81
592.62	4524.81
592.714	4570.81
592.808	4684.81
592.901	4766.81
592.995	4724.81
593.089	4926.81
593.182	4763.81
593.276	4789.81
593.37	4668.81
593.463	4682.81
593.557	4778.81
593.65	4663.81
593.744	4754.81
593.837	5024.81
593.931	4837.81
594.025	6924.81
594.118	4956.81
594.212	4712.81
594.305	4608.81
594.399	4727.81
594.492	4769.81
594.586	4422.81
594.679	4329.81
594.773	4263.81
594.866	4196.81
594.96	4252.81
595.053	4066.81
595.146	4019.81
595.24	3952.81
595.333	4017.81
595.427	3817.81
595.52	3876.81
595.614	3909.81
595.707	3707.81
595.8	3647.81
595.894	3633.81
595.987	3554.81
596.08	3494.81
596.174	3814.81
596.267	3633.81
596.36	3599.81
596.454	3555.81
596.547	3524.81
596.64	3311.81
596.733	3383.81
596.827	3481.81
596.92	3353.81
597.013	3172.81
597.106	3199.81
597.2	3220.81
597.293	3214.81
597.386	3300.81
597.479	3250.81
597.572	3235.81
597.666	3109.81
597.759	3130.81
597.852	3244.81
597.945	3049.81
598.038	3150.81
598.131	3122.81
598.224	3078.81
598.317	3238.81
598.411	3084.81
598.504	3044.81
598.597	3102.81
598.69	3077.81
598.783	3014.81
598.876	2999.81
598.969	3057.81
599.062	2978.81
599.155	3086.81
599.248	3014.81
599.341	2999.81
599.434	2959.81
599.527	3044.81
599.62	3029.81
599.713	2957.81
599.806	3113.81
599.899	3130.81
599.991	2904.81
600.084	3157.81
600.177	2920.81
600.27	2874.81
600.363	3098.81
600.456	2889.81
600.549	2901.81
600.642	2808.81
600.734	2900.81
600.827	2824.81
600.92	3020.81
601.013	2879.81
601.106	2985.81
601.199	2885.81
601.291	2921.81
601.384	2917.81
601.477	2975.81
601.57	2852.81
601.662	2806.81
601.755	2816.81
601.848	2864.81
601.94	2856.81
602.033	2919.81
602.126	2788.81
602.219	2821.81
602.311	2846.81
602.404	2729.81
602.497	2752.81
602.589	2701.81
602.682	2833.81
602.774	2785.81
602.867	2807.81
602.96	2756.81
603.052	2677.81
603.145	2754.81
603.237	2758.81
603.33	2720.81
603.422	2885.81
603.515	2686.81
603.608	2773.81
603.7	2758.81
603.793	2754.81
603.885	2673.81
603.978	2766.81
604.07	2728.81
604.163	2658.81
604.255	2665.81
604.347	2670.81
604.44	2637.81
604.532	2782.81
604.625	2730.81
604.717	2593.81
604.81	2693.81
604.902	2679.81
604.994	2598.81
605.087	2606.81
605.179	2659.81
605.271	2682.81
605.364	2673.81
605.456	2718.81
605.548	2667.81
605.641	2605.81
605.733	2643.81
605.825	2717.81
605.918	2594.81
606.01	2694.81
606.102	2812.81
606.194	2626.81
606.287	2723.81
606.379	2560.81
606.471	2674.81
606.563	2621.81
606.655	2617.81
606.748	2693.81
606.84	2570.81
606.932	2602.81
607.024	2575.81
607.116	2511.81
607.208	2508.81
607.301	2584.81
607.393	2547.81
607.485	2543.81
607.577	2707.81
607.669	2668.81
607.761	2580.81
607.853	2783.81
607.945	2514.81
608.037	2498.81
608.129	2488.81
608.221	2584.81
608.313	2506.81
608.405	2537.81
608.497	2637.81
608.589	2490.81
608.681	2510.81
608.773	2638.81
608.865	2546.81
608.957	2496.81
609.049	2493.81
609.141	2594.81
609.233	2520.81
609.325	2510.81
609.417	2517.81
609.509	2554.81
609.601	2654.81
609.693	2600.81
609.784	2476.81
609.876	2557.81
609.968	2582.81
610.06	4393.81
610.152	2641.81
610.244	3231.81
610.335	2544.81
610.427	2406.81
610.519	2409.81
610.611	2494.81
610.702	2410.81
610.794	2456.81
610.886	2440.81
610.978	2364.81
611.069	2638.81
611.161	2339.81
611.253	2326.81
611.344	2133.81
611.436	2199.81
611.528	2227.81
611.62	2121.81
611.711	2161.81
611.803	2148.81
611.894	2041.81
611.986	2067.81
612.078	2145.81
612.169	2048.81
612.261	1978.81
612.352	1977.81
612.444	1886.81
612.536	1958.81
612.627	1897.81
612.719	1827.81
612.81	1792.81
612.902	1731.81
612.993	1823.81
613.085	1697.81
613.176	1613.81
613.268	1721.81
613.359	1592.81
613.451	1620.81
613.542	1649.81
613.634	1575.81
613.725	1550.81
613.816	1651.81
613.908	1514.81
613.999	1460.81
614.091	1397.81
614.182	1391.81
614.273	1400.81
614.365	1275.81
614.456	1329.81
614.547	1241.81
614.639	1184.81
614.73	1250.81
614.821	1227.81
614.913	1109.81
615.004	1147.81
615.095	1078.81
615.187	1006.81
