Data from sinsal_HRC06701__43__104.txt Node

Date: Thu Apr 18 01:41:46 CDT 2024
User: Estudiantes 2
Spectrometer: HR+C0670
Trigger mode: 4
Integration Time (sec): 1.000000E0
Scans to average: 1
Electric dark correction enabled: true
Nonlinearity correction enabled: false
Boxcar width: 0
XAxis mode: Wavelengths
Number of Pixels in Spectrum: 2048
>>>>>Begin Spectral Data<<<<<
407.81	-129.12
407.921	-129.12
408.032	-129.12
408.143	-106.12
408.254	-63.12
408.365	1.88
408.476	186.88
408.587	-6.12
408.699	-46.12
408.81	-33.12
408.921	-57.12
409.032	26.88
409.143	14.88
409.254	17.88
409.365	110.88
409.476	-14.12
409.587	26.88
409.698	68.88
409.809	41.88
409.92	-50.12
410.031	3.88
410.142	48.88
410.253	0.88
410.364	0.88
410.475	747.88
410.585	3671.88
410.696	4002.88
410.807	3972.88
410.918	3895.88
411.029	3937.88
411.14	3937.88
411.251	4004.88
411.362	4011.88
411.472	4122.88
411.583	3965.88
411.694	4131.88
411.805	4105.88
411.916	4127.88
412.026	4104.88
412.137	4059.88
412.248	4053.88
412.359	4085.88
412.47	3983.88
412.58	3935.88
412.691	3958.88
412.802	3996.88
412.912	3988.88
413.023	3976.88
413.134	3930.88
413.245	3949.88
413.355	3967.88
413.466	3920.88
413.577	3877.88
413.687	4109.88
413.798	3845.88
413.909	4038.88
414.019	4091.88
414.13	4021.88
414.24	4002.88
414.351	4095.88
414.462	4280.88
414.572	4008.88
414.683	4060.88
414.793	4157.88
414.904	4222.88
415.014	3971.88
415.125	3888.88
415.235	3974.88
415.346	4125.88
415.456	4157.88
415.567	3942.88
415.677	3972.88
415.788	4113.88
415.898	3939.88
416.009	3887.88
416.119	3950.88
416.23	3956.88
416.34	3906.88
416.45	4008.88
416.561	4407.88
416.671	4021.88
416.782	4004.88
416.892	4063.88
417.002	4058.88
417.113	4122.88
417.223	4112.88
417.333	4085.88
417.444	4044.88
417.554	4183.88
417.664	4198.88
417.775	4123.88
417.885	4271.88
417.995	4226.88
418.106	4362.88
418.216	4322.88
418.326	4419.88
418.436	4535.88
418.547	4385.88
418.657	4446.88
418.767	4528.88
418.877	4507.88
418.987	4603.88
419.098	4563.88
419.208	4623.88
419.318	4629.88
419.428	4695.88
419.538	4495.88
419.648	4618.88
419.759	4618.88
419.869	4462.88
419.979	4571.88
420.089	4688.88
420.199	4533.88
420.309	4657.88
420.419	4658.88
420.529	4546.88
420.639	4705.88
420.749	4617.88
420.859	4745.88
420.969	4670.88
421.079	4823.88
421.189	4703.88
421.299	4636.88
421.409	4677.88
421.519	4920.88
421.629	4827.88
421.739	4799.88
421.849	4979.88
421.959	4749.88
422.069	4876.88
422.179	4922.88
422.289	4886.88
422.399	5013.88
422.509	5067.88
422.619	7579.88
422.729	5352.88
422.838	5136.88
422.948	5251.88
423.058	5199.88
423.168	5259.88
423.278	5358.88
423.388	5366.88
423.498	5457.88
423.607	5498.88
423.717	5790.88
423.827	5695.88
423.937	5616.88
424.046	5652.88
424.156	5702.88
424.266	5575.88
424.376	5902.88
424.485	5841.88
424.595	5708.88
424.705	5799.88
424.815	5791.88
424.924	6206.88
425.034	5853.88
425.144	5785.88
425.253	5779.88
425.363	6042.88
425.473	5975.88
425.582	5800.88
425.692	5889.88
425.801	6039.88
425.911	6027.88
426.021	6099.88
426.13	6154.88
426.24	6171.88
426.349	6173.88
426.459	6194.88
426.568	6119.88
426.678	6275.88
426.787	6294.88
426.897	6200.88
427.006	6319.88
427.116	6342.88
427.225	6398.88
427.335	6475.88
427.444	6331.88
427.554	6398.88
427.663	6553.88
427.773	6411.88
427.882	6596.88
427.992	6393.88
428.101	6511.88
428.21	6642.88
428.32	6817.88
428.429	6585.88
428.539	7015.88
428.648	6745.88
428.757	6864.88
428.867	6798.88
428.976	7021.88
429.085	6968.88
429.195	6872.88
429.304	7036.88
429.413	7050.88
429.523	7230.88
429.632	7038.88
429.741	6998.88
429.85	6937.88
429.96	7172.88
430.069	7030.88
430.178	7211.88
430.287	7369.88
430.397	7280.88
430.506	7200.88
430.615	7337.88
430.724	7456.88
430.833	7320.88
430.943	7375.88
431.052	7514.88
431.161	7458.88
431.27	7492.88
431.379	7720.88
431.488	7892.88
431.597	7858.88
431.706	7827.88
431.816	7920.88
431.925	7774.88
432.034	7815.88
432.143	7827.88
432.252	7755.88
432.361	7796.88
432.47	7823.88
432.579	7768.88
432.688	7792.88
432.797	7913.88
432.906	7636.88
433.015	7794.88
433.124	8169.88
433.233	8015.88
433.342	7808.88
433.451	7936.88
433.56	7911.88
433.669	7993.88
433.778	7951.88
433.886	8077.88
433.995	8055.88
434.104	8199.88
434.213	8200.88
434.322	8159.88
434.431	8504.88
434.54	8667.88
434.649	8921.88
434.757	8760.88
434.866	8589.88
434.975	8697.88
435.084	8420.88
435.193	8285.88
435.301	8359.88
435.41	8337.88
435.519	8301.88
435.628	7751.88
435.737	7696.88
435.845	7639.88
435.954	7441.88
436.063	7493.88
436.171	7494.88
436.28	7402.88
436.389	7748.88
436.498	7397.88
436.606	7578.88
436.715	7585.88
436.823	7137.88
436.932	7159.88
437.041	7179.88
437.149	7215.88
437.258	7050.88
437.367	6895.88
437.475	6995.88
437.584	7121.88
437.692	6932.88
437.801	8279.88
437.91	7007.88
438.018	6789.88
438.127	6864.88
438.235	6828.88
438.344	6864.88
438.452	6798.88
438.561	6715.88
438.669	6919.88
438.778	6722.88
438.886	6771.88
438.995	6626.88
439.103	6712.88
439.212	6798.88
439.32	6770.88
439.428	6723.88
439.537	6785.88
439.645	6825.88
439.754	6881.88
439.862	6746.88
439.97	6923.88
440.079	6881.88
440.187	6841.88
440.295	6951.88
440.404	6916.88
440.512	7040.88
440.62	7160.88
440.729	7162.88
440.837	7104.88
440.945	7857.88
441.054	7347.88
441.162	7426.88
441.27	7707.88
441.378	7616.88
441.487	7470.88
441.595	8017.88
441.703	7729.88
441.811	7431.88
441.92	7520.88
442.028	7386.88
442.136	7316.88
442.244	7349.88
442.352	7480.88
442.461	7198.88
442.569	7251.88
442.677	7275.88
442.785	7303.88
442.893	7257.88
443.001	7246.88
443.109	7169.88
443.217	7279.88
443.325	7289.88
443.434	7826.88
443.542	7444.88
443.65	7487.88
443.758	7756.88
443.866	7536.88
443.974	7861.88
444.082	7869.88
444.19	8028.88
444.298	8057.88
444.406	8450.88
444.514	8551.88
444.622	8569.88
444.73	8598.88
444.838	8389.88
444.946	8385.88
445.054	7998.88
445.161	7967.88
445.269	7793.88
445.377	7684.88
445.485	7668.88
445.593	7613.88
445.701	7721.88
445.809	7584.88
445.917	7512.88
446.025	7488.88
446.132	7590.88
446.24	7489.88
446.348	7443.88
446.456	7308.88
446.564	7327.88
446.671	7393.88
446.779	7139.88
446.887	7303.88
446.995	7175.88
447.102	7345.88
447.21	7409.88
447.318	7273.88
447.426	7250.88
447.533	7489.88
447.641	8321.88
447.749	7235.88
447.856	7267.88
447.964	7214.88
448.072	7412.88
448.179	7265.88
448.287	7255.88
448.395	7347.88
448.502	7126.88
448.61	7426.88
448.718	7200.88
448.825	7334.88
448.933	7460.88
449.04	7394.88
449.148	7436.88
449.256	7390.88
449.363	7476.88
449.471	7514.88
449.578	7726.88
449.686	7629.88
449.793	7694.88
449.901	7555.88
450.008	7806.88
450.116	7879.88
450.223	7936.88
450.331	7957.88
450.438	8082.88
450.546	8031.88
450.653	8114.88
450.76	8212.88
450.868	8355.88
450.975	8421.88
451.083	8441.88
451.19	8373.88
451.297	8305.88
451.405	8314.88
451.512	8443.88
451.619	8528.88
451.727	8591.88
451.834	8457.88
451.941	8587.88
452.049	8514.88
452.156	8640.88
452.263	8745.88
452.371	8693.88
452.478	8654.88
452.585	8763.88
452.692	8687.88
452.8	8911.88
452.907	8998.88
453.014	8899.88
453.121	9047.88
453.229	8921.88
453.336	9108.88
453.443	9187.88
453.55	9077.88
453.657	8978.88
453.765	9361.88
453.872	9057.88
453.979	9163.88
454.086	9169.88
454.193	9188.88
454.3	9081.88
454.407	9311.88
454.514	9465.88
454.621	9163.88
454.729	9200.88
454.836	9464.88
454.943	9391.88
455.05	9311.88
455.157	9626.88
455.264	9420.88
455.371	9394.88
455.478	9534.88
455.585	10855.88
455.692	9810.88
455.799	9879.88
455.906	9863.88
456.013	9798.88
456.12	9715.88
456.227	9871.88
456.334	9978.88
456.44	9969.88
456.547	10205.88
456.654	9929.88
456.761	10153.88
456.868	10198.88
456.975	10211.88
457.082	10175.88
457.189	10064.88
457.296	10195.88
457.402	10290.88
457.509	10202.88
457.616	10463.88
457.723	10736.88
457.83	10579.88
457.936	10536.88
458.043	11145.88
458.15	10899.88
458.257	11059.88
458.363	11199.88
458.47	11252.88
458.577	11555.88
458.684	11534.88
458.79	11939.88
458.897	11741.88
459.004	12137.88
459.11	12127.88
459.217	12128.88
459.324	12406.88
459.43	12601.88
459.537	12607.88
459.644	12814.88
459.75	12952.88
459.857	13173.88
459.964	13230.88
460.07	13207.88
460.177	13624.88
460.283	13580.88
460.39	13906.88
460.496	13431.88
460.603	13619.88
460.71	13450.88
460.816	13510.88
460.923	13419.88
461.029	13547.88
461.136	13603.88
461.242	13425.88
461.349	13442.88
461.455	13731.88
461.562	14004.88
461.668	13957.88
461.774	13807.88
461.881	13868.88
461.987	14083.88
462.094	14360.88
462.2	14423.88
462.307	14285.88
462.413	14325.88
462.519	14508.88
462.626	14508.88
462.732	14508.88
462.838	14508.88
462.945	14508.88
463.051	14508.88
463.157	14508.88
463.264	14508.88
463.37	14508.88
463.476	14508.88
463.583	14508.88
463.689	14508.88
463.795	14508.88
463.901	14508.88
464.008	14508.88
464.114	14508.88
464.22	14508.88
464.326	14508.88
464.433	14340.88
464.539	14164.88
464.645	13854.88
464.751	13827.88
464.857	13525.88
464.963	13206.88
465.07	12800.88
465.176	12347.88
465.282	12133.88
465.388	11931.88
465.494	11451.88
465.6	11485.88
465.706	11178.88
465.812	11057.88
465.918	10985.88
466.024	10822.88
466.131	10625.88
466.237	10579.88
466.343	10394.88
466.449	10059.88
466.555	9979.88
466.661	9822.88
466.767	9785.88
466.873	9712.88
466.979	9856.88
467.085	9522.88
467.191	9641.88
467.296	9556.88
467.402	9495.88
467.508	9546.88
467.614	9576.88
467.72	9267.88
467.826	9123.88
467.932	9091.88
468.038	8917.88
468.144	8905.88
468.25	8791.88
468.355	8838.88
468.461	8789.88
468.567	8778.88
468.673	8830.88
468.779	8739.88
468.885	8712.88
468.99	8577.88
469.096	8673.88
469.202	8751.88
469.308	8775.88
469.413	8772.88
469.519	8803.88
469.625	8782.88
469.731	8791.88
469.836	8851.88
469.942	9038.88
470.048	8967.88
470.153	8879.88
470.259	8907.88
470.365	8969.88
470.47	9003.88
470.576	8791.88
470.682	8771.88
470.787	8675.88
470.893	8527.88
470.999	8582.88
471.104	8367.88
471.21	8220.88
471.315	8124.88
471.421	8150.88
471.527	8226.88
471.632	8004.88
471.738	7889.88
471.843	7831.88
471.949	7784.88
472.054	7766.88
472.16	7711.88
472.265	7654.88
472.371	7637.88
472.476	7536.88
472.582	7511.88
472.687	7425.88
472.793	7482.88
472.898	7395.88
473.003	7424.88
473.109	7471.88
473.214	7224.88
473.32	7299.88
473.425	7490.88
473.53	7182.88
473.636	7132.88
473.741	7112.88
473.847	7135.88
473.952	7203.88
474.057	7146.88
474.163	7265.88
474.268	7175.88
474.373	7154.88
474.478	7211.88
474.584	7164.88
474.689	7144.88
474.794	7399.88
474.9	7378.88
475.005	7098.88
475.11	7368.88
475.215	7027.88
475.321	7131.88
475.426	7389.88
475.531	7255.88
475.636	7184.88
475.741	7281.88
475.846	7529.88
475.952	7414.88
476.057	7366.88
476.162	7499.88
476.267	7433.88
476.372	7623.88
476.477	7412.88
476.582	7454.88
476.687	7314.88
476.793	7470.88
476.898	7482.88
477.003	7471.88
477.108	7580.88
477.213	7583.88
477.318	7711.88
477.423	7830.88
477.528	7872.88
477.633	8016.88
477.738	8087.88
477.843	8002.88
477.948	8061.88
478.053	8194.88
478.158	8287.88
478.263	8369.88
478.368	8266.88
478.473	8482.88
478.578	8433.88
478.682	8448.88
478.787	8580.88
478.892	8569.88
478.997	8562.88
479.102	8504.88
479.207	8586.88
479.312	8726.88
479.417	8610.88
479.521	8708.88
479.626	8848.88
479.731	8753.88
479.836	8879.88
479.941	8952.88
480.045	9043.88
480.15	9166.88
480.255	9252.88
480.36	9345.88
480.465	9286.88
480.569	9555.88
480.674	9115.88
480.779	8910.88
480.883	8955.88
480.988	9081.88
481.093	9036.88
481.197	8941.88
481.302	8817.88
481.407	8874.88
481.511	10575.88
481.616	8948.88
481.721	8833.88
481.825	8857.88
481.93	8891.88
482.035	8910.88
482.139	8944.88
482.244	9032.88
482.348	8864.88
482.453	8997.88
482.557	9083.88
482.662	8966.88
482.767	9047.88
482.871	9057.88
482.976	9184.88
483.08	9117.88
483.185	9289.88
483.289	9295.88
483.394	9342.88
483.498	9443.88
483.603	9461.88
483.707	9501.88
483.811	9587.88
483.916	9786.88
484.02	9723.88
484.125	9760.88
484.229	9674.88
484.333	10055.88
484.438	9830.88
484.542	9849.88
484.647	10049.88
484.751	10003.88
484.855	10141.88
484.96	10138.88
485.064	10266.88
485.168	10367.88
485.273	10280.88
485.377	10310.88
485.481	10705.88
485.585	10614.88
485.69	10590.88
485.794	10566.88
485.898	10639.88
486.002	10708.88
486.107	10735.88
486.211	10789.88
486.315	10792.88
486.419	10872.88
486.524	10914.88
486.628	10825.88
486.732	10726.88
486.836	10818.88
486.94	10910.88
487.044	10867.88
487.148	10767.88
487.253	10899.88
487.357	10851.88
487.461	10913.88
487.565	10833.88
487.669	10927.88
487.773	10784.88
487.877	10941.88
487.981	10915.88
488.085	10823.88
488.189	10976.88
488.293	11049.88
488.397	11432.88
488.501	10885.88
488.605	10927.88
488.709	10880.88
488.813	10873.88
488.917	10825.88
489.021	10948.88
489.125	11140.88
489.229	10947.88
489.333	11274.88
489.437	11075.88
489.541	11003.88
489.645	11170.88
489.749	11158.88
489.853	11145.88
489.956	11029.88
490.06	11159.88
490.164	11073.88
490.268	10963.88
490.372	11082.88
490.476	11103.88
490.579	11047.88
490.683	11782.88
490.787	11161.88
490.891	11055.88
490.995	11187.88
491.098	11019.88
491.202	11111.88
491.306	11181.88
491.41	11063.88
491.513	11037.88
491.617	11084.88
491.721	11356.88
491.824	11262.88
491.928	11147.88
492.032	11223.88
492.136	11022.88
492.239	11156.88
492.343	11270.88
492.446	11624.88
492.55	11094.88
492.654	11199.88
492.757	11042.88
492.861	11156.88
492.965	11133.88
493.068	11196.88
493.172	11190.88
493.275	11216.88
493.379	11339.88
493.482	11223.88
493.586	11161.88
493.689	11350.88
493.793	11290.88
493.896	11398.88
494	11354.88
494.103	11228.88
494.207	11488.88
494.31	11480.88
494.414	11393.88
494.517	11343.88
494.621	11161.88
494.724	11184.88
494.828	11185.88
494.931	11007.88
495.034	11086.88
495.138	11206.88
495.241	11000.88
495.345	11710.88
495.448	11185.88
495.551	11006.88
495.655	11023.88
495.758	10947.88
495.861	10997.88
495.965	11034.88
496.068	11028.88
496.171	11124.88
496.274	11102.88
496.378	11153.88
496.481	11311.88
496.584	11194.88
496.687	11295.88
496.791	11264.88
496.894	11368.88
496.997	11414.88
497.1	11387.88
497.204	11505.88
497.307	11328.88
497.41	11881.88
497.513	11941.88
497.616	11807.88
497.719	11986.88
497.823	12241.88
497.926	12392.88
498.029	12465.88
498.132	12667.88
498.235	12813.88
498.338	13125.88
498.441	13435.88
498.544	13585.88
498.647	13926.88
498.75	14403.88
498.853	14508.88
498.956	14508.88
499.059	14508.88
499.163	14508.88
499.266	14508.88
499.369	14508.88
499.471	14508.88
499.574	14508.88
499.677	14508.88
499.78	14508.88
499.883	14508.88
499.986	14508.88
500.089	14508.88
500.192	14508.88
500.295	14508.88
500.398	14508.88
500.501	14508.88
500.604	14508.88
500.707	14508.88
500.809	14508.88
500.912	14508.88
501.015	14508.88
501.118	14508.88
501.221	14508.88
501.324	14508.88
501.426	14508.88
501.529	14508.88
501.632	14508.88
501.735	14185.88
501.837	13831.88
501.94	13484.88
502.043	13197.88
502.146	12781.88
502.248	12335.88
502.351	12274.88
502.454	12011.88
502.557	11802.88
502.659	11679.88
502.762	11171.88
502.865	11012.88
502.967	10839.88
503.07	10637.88
503.173	10689.88
503.275	10369.88
503.378	10288.88
503.48	10144.88
503.583	10149.88
503.686	10055.88
503.788	10296.88
503.891	10182.88
503.993	10181.88
504.096	9948.88
504.198	10143.88
504.301	9939.88
504.403	9938.88
504.506	9816.88
504.608	9658.88
504.711	9642.88
504.813	9307.88
504.916	9246.88
505.018	9029.88
505.121	8722.88
505.223	8750.88
505.326	8582.88
505.428	8625.88
505.531	8286.88
505.633	8200.88
505.735	8211.88
505.838	8099.88
505.94	8120.88
506.042	7986.88
506.145	7921.88
506.247	7939.88
506.35	7845.88
506.452	7677.88
506.554	7847.88
506.656	7751.88
506.759	7705.88
506.861	7628.88
506.963	7576.88
507.066	7630.88
507.168	7554.88
507.27	7598.88
507.372	7406.88
507.475	7410.88
507.577	7417.88
507.679	7375.88
507.781	7203.88
507.883	7298.88
507.986	7205.88
508.088	7225.88
508.19	7255.88
508.292	7173.88
508.394	7075.88
508.496	6958.88
508.598	7150.88
508.701	7108.88
508.803	7022.88
508.905	7045.88
509.007	7104.88
509.109	6987.88
509.211	7018.88
509.313	6987.88
509.415	6879.88
509.517	6876.88
509.619	6920.88
509.721	6842.88
509.823	6851.88
509.925	6988.88
510.027	6781.88
510.129	6815.88
510.231	6884.88
510.333	6907.88
510.435	6698.88
510.537	6894.88
510.639	6851.88
510.741	6822.88
510.843	6775.88
510.945	6912.88
511.047	6879.88
511.148	6831.88
511.25	6819.88
511.352	6873.88
511.454	6680.88
511.556	6948.88
511.658	6929.88
511.76	6864.88
511.861	7059.88
511.963	6777.88
512.065	6838.88
512.167	6697.88
512.268	6957.88
512.37	6804.88
512.472	6896.88
512.574	6946.88
512.676	6949.88
512.777	6831.88
512.879	6878.88
512.981	6861.88
513.082	6961.88
513.184	6994.88
513.286	7387.88
513.387	7011.88
513.489	7135.88
513.591	6994.88
513.692	6964.88
513.794	7031.88
513.896	6895.88
513.997	6974.88
514.099	6967.88
514.2	7107.88
514.302	7198.88
514.404	7025.88
514.505	7044.88
514.607	7307.88
514.708	7048.88
514.81	7349.88
514.911	7328.88
515.013	7414.88
515.114	7463.88
515.216	7294.88
515.317	7502.88
515.419	7360.88
515.52	7559.88
515.622	7588.88
515.723	7687.88
515.825	7953.88
515.926	7832.88
516.027	7874.88
516.129	7920.88
516.23	8163.88
516.332	8125.88
516.433	8276.88
516.534	8338.88
516.636	8415.88
516.737	8600.88
516.838	9675.88
516.94	8969.88
517.041	9104.88
517.142	9349.88
517.244	9414.88
517.345	9420.88
517.446	9576.88
517.547	9794.88
517.649	9712.88
517.75	9823.88
517.851	9653.88
517.952	9844.88
518.054	9600.88
518.155	9521.88
518.256	9262.88
518.357	9295.88
518.458	9043.88
518.56	8840.88
518.661	8923.88
518.762	8715.88
518.863	8767.88
518.964	8627.88
519.065	8453.88
519.166	8444.88
519.268	8356.88
519.369	8528.88
519.47	8306.88
519.571	8201.88
519.672	8094.88
519.773	8046.88
519.874	8149.88
519.975	8015.88
520.076	7962.88
520.177	8051.88
520.278	7914.88
520.379	7929.88
520.48	7794.88
520.581	7818.88
520.682	7786.88
520.783	7812.88
520.884	7825.88
520.985	7927.88
521.086	7712.88
521.187	7824.88
521.288	7644.88
521.389	7770.88
521.489	7683.88
521.59	7635.88
521.691	7729.88
521.792	7788.88
521.893	7715.88
521.994	7730.88
522.095	7655.88
522.195	7713.88
522.296	7692.88
522.397	7719.88
522.498	7663.88
522.599	7628.88
522.699	7610.88
522.8	7749.88
522.901	7705.88
523.002	7640.88
523.102	7840.88
523.203	7572.88
523.304	7903.88
523.405	7707.88
523.505	7651.88
523.606	7688.88
523.707	7557.88
523.807	7549.88
523.908	7559.88
524.009	7679.88
524.109	7593.88
524.21	7563.88
524.31	7716.88
524.411	7736.88
524.512	7801.88
524.612	7732.88
524.713	7766.88
524.813	7631.88
524.914	7810.88
525.014	12635.88
525.115	7945.88
525.216	7681.88
525.316	7670.88
525.417	7643.88
525.517	7648.88
525.618	7733.88
525.718	7620.88
525.819	7502.88
525.919	7693.88
526.019	7721.88
526.12	7588.88
526.22	7623.88
526.321	7607.88
526.421	7529.88
526.522	7513.88
526.622	7461.88
526.722	7586.88
526.823	7546.88
526.923	7624.88
527.023	7673.88
527.124	7569.88
527.224	7630.88
527.324	7570.88
527.425	7566.88
527.525	7592.88
527.625	7679.88
527.726	7616.88
527.826	7521.88
527.926	7653.88
528.026	7656.88
528.127	7434.88
528.227	7554.88
528.327	7557.88
528.427	7483.88
528.528	7528.88
528.628	7585.88
528.728	7504.88
528.828	7588.88
528.928	7705.88
529.029	7503.88
529.129	7603.88
529.229	7541.88
529.329	7584.88
529.429	7478.88
529.529	7528.88
529.629	7457.88
529.729	7376.88
529.829	7616.88
529.93	7444.88
530.03	7425.88
530.13	7303.88
530.23	7375.88
530.33	7379.88
530.43	7230.88
530.53	7329.88
530.63	7276.88
530.73	7240.88
530.83	7101.88
530.93	7247.88
531.03	7060.88
531.13	7355.88
531.23	7284.88
531.33	7128.88
531.429	7271.88
531.529	7245.88
531.629	7219.88
531.729	7064.88
531.829	7121.88
531.929	7168.88
532.029	7295.88
532.129	7102.88
532.229	7207.88
532.328	7103.88
532.428	7028.88
532.528	7072.88
532.628	6982.88
532.728	6891.88
532.827	6831.88
532.927	6989.88
533.027	6836.88
533.127	7064.88
533.227	6936.88
533.326	6907.88
533.426	6787.88
533.526	7040.88
533.625	7034.88
533.725	7115.88
533.825	6822.88
533.924	6653.88
534.024	6645.88
534.124	6698.88
534.223	6726.88
534.323	6977.88
534.423	6719.88
534.522	6559.88
534.622	6400.88
534.722	6541.88
534.821	6520.88
534.921	6475.88
535.02	6495.88
535.12	6483.88
535.219	6642.88
535.319	6538.88
535.419	6486.88
535.518	6307.88
535.618	6409.88
535.717	6406.88
535.817	6250.88
535.916	6154.88
536.016	6166.88
536.115	6007.88
536.215	6224.88
536.314	6020.88
536.413	6014.88
536.513	5969.88
536.612	5908.88
536.712	5969.88
536.811	5958.88
536.91	5883.88
537.01	5782.88
537.109	5950.88
537.209	5833.88
537.308	5803.88
537.407	5834.88
537.507	5761.88
537.606	5807.88
537.705	5890.88
537.805	5774.88
537.904	5762.88
538.003	5735.88
538.102	5867.88
538.202	5700.88
538.301	5775.88
538.4	5669.88
538.499	5675.88
538.599	5665.88
538.698	5775.88
538.797	5633.88
538.896	5729.88
538.995	5631.88
539.095	5594.88
539.194	5773.88
539.293	5562.88
539.392	5474.88
539.491	5415.88
539.59	5579.88
539.689	5483.88
539.789	5561.88
539.888	5444.88
539.987	5346.88
540.086	5324.88
540.185	5370.88
540.284	5399.88
540.383	5388.88
540.482	5342.88
540.581	5354.88
540.68	5264.88
540.779	5359.88
540.878	5338.88
540.977	5212.88
541.076	5331.88
541.175	5336.88
541.274	5469.88
541.373	5274.88
541.472	5144.88
541.571	5169.88
541.67	6352.88
541.769	5318.88
541.868	5321.88
541.966	5205.88
542.065	5123.88
542.164	5104.88
542.263	5085.88
542.362	5035.88
542.461	5093.88
542.56	5082.88
542.658	5019.88
542.757	5126.88
542.856	5015.88
542.955	4968.88
543.054	5062.88
543.152	5182.88
543.251	5095.88
543.35	5054.88
543.449	5093.88
543.547	4964.88
543.646	4956.88
543.745	5075.88
543.843	5079.88
543.942	5152.88
544.041	5006.88
544.14	5027.88
544.238	4946.88
544.337	5156.88
544.436	5242.88
544.534	5152.88
544.633	5096.88
544.731	5045.88
544.83	5125.88
544.929	5115.88
545.027	5138.88
545.126	5007.88
545.224	5077.88
545.323	5097.88
545.421	5124.88
545.52	5031.88
545.619	5141.88
545.717	5093.88
545.816	5000.88
545.914	5163.88
546.013	5215.88
546.111	5137.88
546.209	4953.88
546.308	4976.88
546.406	5013.88
546.505	5127.88
546.603	5143.88
546.702	4971.88
546.8	4968.88
546.899	4960.88
546.997	5077.88
547.095	5066.88
547.194	5009.88
547.292	5048.88
547.39	5120.88
547.489	5015.88
547.587	5242.88
547.685	4989.88
547.784	5227.88
547.882	5126.88
547.98	5026.88
548.079	5021.88
548.177	4977.88
548.275	4862.88
548.373	5007.88
548.472	4901.88
548.57	4972.88
548.668	5097.88
548.766	4979.88
548.864	5079.88
548.963	5124.88
549.061	5104.88
549.159	5011.88
549.257	5149.88
549.355	5026.88
549.454	5112.88
549.552	5242.88
549.65	5091.88
549.748	5055.88
549.846	5041.88
549.944	4967.88
550.042	4938.88
550.14	4954.88
550.238	4918.88
550.336	4925.88
550.434	4879.88
550.532	4925.88
550.631	5060.88
550.729	4950.88
550.827	5031.88
550.925	4875.88
551.023	4998.88
551.121	4929.88
551.218	4935.88
551.316	4891.88
551.414	4957.88
551.512	4836.88
551.61	4944.88
551.708	5029.88
551.806	4901.88
551.904	4871.88
552.002	4990.88
552.1	5089.88
552.198	5037.88
552.296	5219.88
552.393	5257.88
552.491	5308.88
552.589	5306.88
552.687	5475.88
552.785	5280.88
552.882	5497.88
552.98	5594.88
553.078	5515.88
553.176	5486.88
553.274	5423.88
553.371	5390.88
553.469	5335.88
553.567	5494.88
553.665	5294.88
553.762	5689.88
553.86	5238.88
553.958	5341.88
554.055	5221.88
554.153	5296.88
554.251	5117.88
554.348	5106.88
554.446	4976.88
554.544	5019.88
554.641	5253.88
554.739	4855.88
554.837	4959.88
554.934	4857.88
555.032	4942.88
555.129	4867.88
555.227	5142.88
555.324	8376.88
555.422	5026.88
555.519	4766.88
555.617	4667.88
555.715	4614.88
555.812	4999.88
555.91	4611.88
556.007	4649.88
556.105	4622.88
556.202	4699.88
556.299	4465.88
556.397	4595.88
556.494	4604.88
556.592	4532.88
556.689	4617.88
556.787	4534.88
556.884	4345.88
556.981	4517.88
557.079	4491.88
557.176	4527.88
557.273	4535.88
557.371	4615.88
557.468	4514.88
557.566	4516.88
557.663	4585.88
557.76	4599.88
557.857	4556.88
557.955	4572.88
558.052	4620.88
558.149	4552.88
558.247	4569.88
558.344	4498.88
558.441	4441.88
558.538	4468.88
558.636	4528.88
558.733	4539.88
558.83	4549.88
558.927	4596.88
559.024	4466.88
559.122	4401.88
559.219	4564.88
559.316	4597.88
559.413	4689.88
559.51	4547.88
559.607	4544.88
559.704	4535.88
559.801	4623.88
559.899	4548.88
559.996	4724.88
560.093	4630.88
560.19	4503.88
560.287	4593.88
560.384	4697.88
560.481	4513.88
560.578	4579.88
560.675	4497.88
560.772	4575.88
560.869	4610.88
560.966	4671.88
561.063	4610.88
561.16	4705.88
561.257	4648.88
561.354	4601.88
561.451	4662.88
561.548	4702.88
561.645	4857.88
561.742	4579.88
561.838	4703.88
561.935	4600.88
562.032	4613.88
562.129	4644.88
562.226	4726.88
562.323	4663.88
562.42	4791.88
562.516	4697.88
562.613	4703.88
562.71	4814.88
562.807	5364.88
562.904	4684.88
563	4838.88
563.097	4714.88
563.194	4801.88
563.291	4733.88
563.387	4809.88
563.484	4824.88
563.581	4826.88
563.678	4873.88
563.774	5180.88
563.871	4882.88
563.968	5032.88
564.064	4943.88
564.161	4929.88
564.258	4982.88
564.354	5071.88
564.451	5062.88
564.548	5172.88
564.644	5202.88
564.741	5237.88
564.837	5241.88
564.934	5296.88
565.031	5326.88
565.127	5474.88
565.224	5599.88
565.32	5776.88
565.417	5563.88
565.513	5883.88
565.61	5845.88
565.706	6012.88
565.803	6087.88
565.899	6209.88
565.996	6278.88
566.092	6388.88
566.189	6619.88
566.285	6793.88
566.382	6982.88
566.478	7358.88
566.574	7549.88
566.671	7426.88
566.767	7573.88
566.864	7394.88
566.96	7654.88
567.056	7561.88
567.153	7907.88
567.249	7875.88
567.345	8067.88
567.442	8275.88
567.538	8446.88
567.634	8463.88
567.731	8664.88
567.827	8574.88
567.923	8541.88
568.019	8305.88
568.116	7853.88
568.212	7702.88
568.308	7534.88
568.404	7189.88
568.501	6882.88
568.597	6696.88
568.693	6531.88
568.789	6850.88
568.885	6087.88
568.982	5924.88
569.078	5799.88
569.174	5842.88
569.27	5501.88
569.366	5455.88
569.462	5376.88
569.558	5403.88
569.655	5319.88
569.751	5140.88
569.847	5135.88
569.943	5115.88
570.039	5030.88
570.135	5478.88
570.231	5073.88
570.327	5109.88
570.423	5083.88
570.519	4979.88
570.615	4941.88
570.711	5057.88
570.807	5110.88
570.903	4965.88
570.999	4911.88
571.095	4976.88
571.191	4848.88
571.287	4814.88
571.383	4807.88
571.479	4775.88
571.574	4657.88
571.67	4526.88
571.766	4626.88
571.862	4391.88
571.958	4470.88
572.054	4588.88
572.15	4273.88
572.246	4176.88
572.341	4359.88
572.437	4190.88
572.533	4241.88
572.629	4204.88
572.725	4221.88
572.82	4101.88
572.916	4182.88
573.012	4121.88
573.108	4178.88
573.203	4096.88
573.299	4082.88
573.395	3881.88
573.49	3896.88
573.586	3991.88
573.682	4054.88
573.778	4085.88
573.873	3906.88
573.969	3903.88
574.065	3875.88
574.16	3879.88
574.256	3908.88
574.351	3912.88
574.447	3881.88
574.543	3950.88
574.638	3955.88
574.734	3881.88
574.829	4058.88
574.925	3821.88
575.02	3683.88
575.116	3723.88
575.212	3776.88
575.307	3750.88
575.403	3671.88
575.498	3769.88
575.594	3666.88
575.689	3681.88
575.784	3648.88
575.88	3562.88
575.975	3701.88
576.071	3587.88
576.166	3527.88
576.262	3578.88
576.357	3478.88
576.452	3691.88
576.548	3552.88
576.643	3463.88
576.739	3553.88
576.834	3459.88
576.929	3469.88
577.025	4012.88
577.12	3358.88
577.215	3354.88
577.311	3464.88
577.406	3429.88
577.501	3463.88
577.597	3282.88
577.692	3406.88
577.787	3359.88
577.882	3267.88
577.978	3309.88
578.073	3241.88
578.168	3271.88
578.263	3239.88
578.358	3135.88
578.454	3123.88
578.549	3159.88
578.644	3135.88
578.739	3198.88
578.834	3090.88
578.929	3091.88
579.025	3057.88
579.12	3126.88
579.215	3344.88
579.31	3234.88
579.405	3032.88
579.5	3152.88
579.595	3016.88
579.69	2947.88
579.785	3014.88
579.88	2963.88
579.975	3048.88
580.07	2915.88
580.165	2873.88
580.26	3011.88
580.355	2919.88
580.45	3003.88
580.545	2883.88
580.64	2910.88
580.735	2944.88
580.83	2821.88
580.925	2798.88
581.02	2863.88
581.115	2834.88
581.21	2766.88
581.305	2907.88
581.4	2794.88
581.495	2783.88
581.589	2880.88
581.684	2766.88
581.779	2830.88
581.874	2790.88
581.969	2887.88
582.064	2657.88
582.158	2710.88
582.253	2722.88
582.348	2665.88
582.443	2713.88
582.537	2726.88
582.632	2914.88
582.727	2693.88
582.822	2644.88
582.916	2583.88
583.011	2593.88
583.106	2657.88
583.201	2596.88
583.295	2605.88
583.39	2561.88
583.485	2510.88
583.579	4197.88
583.674	2720.88
583.769	2766.88
583.863	2502.88
583.958	2581.88
584.052	2499.88
584.147	2518.88
584.242	2451.88
584.336	2566.88
584.431	2667.88
584.525	2429.88
584.62	2606.88
584.714	2582.88
584.809	2535.88
584.903	2467.88
584.998	2519.88
585.092	2387.88
585.187	2464.88
585.281	2414.88
585.376	2501.88
585.47	2452.88
585.565	2404.88
585.659	2442.88
585.754	2350.88
585.848	2423.88
585.942	2423.88
586.037	2322.88
586.131	4322.88
586.226	2529.88
586.32	2388.88
586.414	2273.88
586.509	2498.88
586.603	2390.88
586.697	2305.88
586.792	2310.88
586.886	2319.88
586.98	2321.88
587.075	2261.88
587.169	2319.88
587.263	2440.88
587.357	2262.88
587.452	2290.88
587.546	2352.88
587.64	2250.88
587.734	2289.88
587.829	2229.88
587.923	2233.88
588.017	2196.88
588.111	2188.88
588.205	2288.88
588.3	2142.88
588.394	2168.88
588.488	2187.88
588.582	2179.88
588.676	2289.88
588.77	2216.88
588.864	2317.88
588.958	2360.88
589.052	2167.88
589.147	2274.88
589.241	2269.88
589.335	2200.88
589.429	2267.88
589.523	2239.88
589.617	2226.88
589.711	2192.88
589.805	2184.88
589.899	2334.88
589.993	2173.88
590.087	2144.88
590.181	2166.88
590.275	2256.88
590.369	2131.88
590.462	2147.88
590.556	2099.88
590.65	2132.88
590.744	2182.88
590.838	2171.88
590.932	2125.88
591.026	2227.88
591.12	2315.88
591.214	2213.88
591.307	2214.88
591.401	2257.88
591.495	2310.88
591.589	2180.88
591.683	2283.88
591.777	2279.88
591.87	2549.88
591.964	2289.88
592.058	2298.88
592.152	2351.88
592.245	2346.88
592.339	2437.88
592.433	2365.88
592.527	2419.88
592.62	2417.88
592.714	2453.88
592.808	2565.88
592.901	2645.88
592.995	2474.88
593.089	2702.88
593.182	2546.88
593.276	2513.88
593.37	2446.88
593.463	2487.88
593.557	2536.88
593.65	2454.88
593.744	2575.88
593.837	2626.88
593.931	2500.88
594.025	4602.88
594.118	2695.88
594.212	2484.88
594.305	2454.88
594.399	2479.88
594.492	2675.88
594.586	2355.88
594.679	2324.88
594.773	2228.88
594.866	2265.88
594.96	2313.88
595.053	2203.88
595.146	2118.88
595.24	2126.88
595.333	2109.88
595.427	2025.88
595.52	2045.88
595.614	2202.88
595.707	2024.88
595.8	1962.88
595.894	1994.88
595.987	1910.88
596.08	1904.88
596.174	2133.88
596.267	2050.88
596.36	1943.88
596.454	2036.88
596.547	1940.88
596.64	1845.88
596.733	1811.88
596.827	1918.88
596.92	1799.88
597.013	1771.88
597.106	1746.88
597.2	1797.88
597.293	1713.88
597.386	1868.88
597.479	1864.88
597.572	1770.88
597.666	1666.88
597.759	1744.88
597.852	1819.88
597.945	1690.88
598.038	1735.88
598.131	1643.88
598.224	1666.88
598.317	1798.88
598.411	1675.88
598.504	1637.88
598.597	1704.88
598.69	1672.88
598.783	1609.88
598.876	1675.88
598.969	1689.88
599.062	1562.88
599.155	1749.88
599.248	1691.88
599.341	1641.88
599.434	1597.88
599.527	1712.88
599.62	1684.88
599.713	1593.88
599.806	1719.88
599.899	1825.88
599.991	1631.88
600.084	1777.88
600.177	1629.88
600.27	1543.88
600.363	1743.88
600.456	1641.88
600.549	1563.88
600.642	1547.88
600.734	1519.88
600.827	1609.88
600.92	1662.88
601.013	1612.88
601.106	1617.88
601.199	1535.88
601.291	1570.88
601.384	1601.88
601.477	1695.88
601.57	1612.88
601.662	1613.88
601.755	1584.88
601.848	1564.88
601.94	1627.88
602.033	1690.88
602.126	1509.88
602.219	1562.88
602.311	1650.88
602.404	1524.88
602.497	1539.88
602.589	1571.88
602.682	1579.88
602.774	1505.88
602.867	1563.88
602.96	1530.88
603.052	1479.88
603.145	1536.88
603.237	1507.88
603.33	1499.88
603.422	1632.88
603.515	1519.88
603.608	1500.88
603.7	1456.88
603.793	1539.88
603.885	1578.88
603.978	1495.88
604.07	1546.88
604.163	1491.88
604.255	1480.88
604.347	1544.88
604.44	1446.88
604.532	1526.88
604.625	1503.88
604.717	1445.88
604.81	1485.88
604.902	1451.88
604.994	1529.88
605.087	1466.88
605.179	1474.88
605.271	1523.88
605.364	1416.88
605.456	1538.88
605.548	1506.88
605.641	1440.88
605.733	1426.88
605.825	1486.88
605.918	1406.88
606.01	1554.88
606.102	1743.88
606.194	1511.88
606.287	1590.88
606.379	1402.88
606.471	1524.88
606.563	1488.88
606.655	1550.88
606.748	1525.88
606.84	1406.88
606.932	1497.88
607.024	1454.88
607.116	1373.88
607.208	1401.88
607.301	1477.88
607.393	1394.88
607.485	1411.88
607.577	1467.88
607.669	1555.88
607.761	1461.88
607.853	1647.88
607.945	1405.88
608.037	1302.88
608.129	1366.88
608.221	1390.88
608.313	1328.88
608.405	1432.88
608.497	1414.88
608.589	1415.88
608.681	1388.88
608.773	1478.88
608.865	1465.88
608.957	1414.88
609.049	1368.88
609.141	1483.88
609.233	1431.88
609.325	1361.88
609.417	1414.88
609.509	1433.88
609.601	1498.88
609.693	1486.88
609.784	1371.88
609.876	1402.88
609.968	1431.88
610.06	3520.88
610.152	1587.88
610.244	2080.88
610.335	1462.88
610.427	1294.88
610.519	1340.88
610.611	1372.88
610.702	1344.88
610.794	1309.88
610.886	1425.88
610.978	1386.88
611.069	1759.88
611.161	1344.88
611.253	1361.88
611.344	1275.88
611.436	1171.88
611.528	1295.88
611.62	1176.88
611.711	1247.88
611.803	1167.88
611.894	1126.88
611.986	1117.88
612.078	1211.88
612.169	1099.88
612.261	1073.88
612.352	1046.88
612.444	1101.88
612.536	1152.88
612.627	1086.88
612.719	1043.88
612.81	964.88
612.902	986.88
612.993	1062.88
613.085	961.88
613.176	862.88
613.268	978.88
613.359	912.88
613.451	927.88
613.542	893.88
613.634	889.88
613.725	883.88
613.816	967.88
613.908	864.88
613.999	821.88
614.091	766.88
614.182	786.88
614.273	806.88
614.365	791.88
614.456	722.88
614.547	709.88
614.639	651.88
614.73	703.88
614.821	769.88
614.913	602.88
615.004	595.88
615.095	624.88
615.187	580.88
