Data from sinsal_HRC06701__28__89.txt Node

Date: Thu Apr 18 01:41:31 CDT 2024
User: Estudiantes 2
Spectrometer: HR+C0670
Trigger mode: 4
Integration Time (sec): 1.000000E0
Scans to average: 1
Electric dark correction enabled: true
Nonlinearity correction enabled: false
Boxcar width: 0
XAxis mode: Wavelengths
Number of Pixels in Spectrum: 2048
>>>>>Begin Spectral Data<<<<<
407.81	-77.31
407.921	-77.31
408.032	-77.31
408.143	-128.31
408.254	-103.31
408.365	50.69
408.476	140.69
408.587	-35.31
408.699	8.69
408.81	-30.31
408.921	-35.31
409.032	-7.31
409.143	35.69
409.254	28.69
409.365	94.69
409.476	-25.31
409.587	13.69
409.698	69.69
409.809	138.69
409.92	-35.31
410.031	-21.31
410.142	98.69
410.253	9.69
410.364	12.69
410.475	141.69
410.585	617.69
410.696	647.69
410.807	704.69
410.918	647.69
411.029	701.69
411.14	676.69
411.251	649.69
411.362	705.69
411.472	742.69
411.583	728.69
411.694	675.69
411.805	679.69
411.916	748.69
412.026	727.69
412.137	724.69
412.248	698.69
412.359	664.69
412.47	649.69
412.58	631.69
412.691	723.69
412.802	689.69
412.912	697.69
413.023	702.69
413.134	617.69
413.245	728.69
413.355	730.69
413.466	659.69
413.577	640.69
413.687	745.69
413.798	584.69
413.909	689.69
414.019	682.69
414.13	702.69
414.24	691.69
414.351	737.69
414.462	889.69
414.572	687.69
414.683	731.69
414.793	716.69
414.904	947.69
415.014	680.69
415.125	658.69
415.235	709.69
415.346	764.69
415.456	801.69
415.567	685.69
415.677	702.69
415.788	744.69
415.898	751.69
416.009	675.69
416.119	651.69
416.23	719.69
416.34	603.69
416.45	669.69
416.561	1218.69
416.671	784.69
416.782	622.69
416.892	733.69
417.002	731.69
417.113	751.69
417.223	706.69
417.333	744.69
417.444	707.69
417.554	733.69
417.664	776.69
417.775	623.69
417.885	715.69
417.995	779.69
418.106	806.69
418.216	770.69
418.326	795.69
418.436	784.69
418.547	752.69
418.657	758.69
418.767	881.69
418.877	774.69
418.987	752.69
419.098	835.69
419.208	801.69
419.318	850.69
419.428	898.69
419.538	752.69
419.648	785.69
419.759	900.69
419.869	783.69
419.979	761.69
420.089	830.69
420.199	815.69
420.309	832.69
420.419	813.69
420.529	799.69
420.639	1046.69
420.749	887.69
420.859	861.69
420.969	844.69
421.079	1017.69
421.189	913.69
421.299	874.69
421.409	747.69
421.519	910.69
421.629	879.69
421.739	784.69
421.849	798.69
421.959	817.69
422.069	857.69
422.179	808.69
422.289	837.69
422.399	852.69
422.509	921.69
422.619	2833.69
422.729	1102.69
422.838	814.69
422.948	918.69
423.058	870.69
423.168	912.69
423.278	893.69
423.388	924.69
423.498	952.69
423.607	920.69
423.717	1250.69
423.827	1115.69
423.937	960.69
424.046	1083.69
424.156	1036.69
424.266	906.69
424.376	1105.69
424.485	1033.69
424.595	984.69
424.705	994.69
424.815	995.69
424.924	1352.69
425.034	1003.69
425.144	1016.69
425.253	983.69
425.363	1002.69
425.473	1089.69
425.582	962.69
425.692	948.69
425.801	983.69
425.911	1118.69
426.021	1005.69
426.13	1118.69
426.24	1230.69
426.349	1127.69
426.459	1066.69
426.568	1061.69
426.678	1091.69
426.787	1041.69
426.897	1050.69
427.006	1047.69
427.116	1057.69
427.225	1109.69
427.335	1141.69
427.444	1078.69
427.554	1120.69
427.663	1118.69
427.773	1048.69
427.882	1139.69
427.992	1098.69
428.101	1081.69
428.21	1037.69
428.32	1174.69
428.429	1064.69
428.539	1295.69
428.648	1134.69
428.757	1135.69
428.867	1176.69
428.976	1263.69
429.085	1171.69
429.195	1079.69
429.304	1156.69
429.413	1256.69
429.523	1234.69
429.632	1257.69
429.741	1267.69
429.85	1148.69
429.96	1202.69
430.069	1153.69
430.178	1145.69
430.287	1368.69
430.397	1258.69
430.506	1195.69
430.615	1192.69
430.724	1187.69
430.833	1231.69
430.943	1195.69
431.052	1233.69
431.161	1286.69
431.27	1270.69
431.379	1259.69
431.488	1412.69
431.597	1348.69
431.706	1375.69
431.816	1303.69
431.925	1331.69
432.034	1294.69
432.143	1332.69
432.252	1316.69
432.361	1307.69
432.47	1281.69
432.579	1336.69
432.688	1317.69
432.797	1289.69
432.906	1275.69
433.015	1315.69
433.124	1645.69
433.233	1380.69
433.342	1353.69
433.451	1294.69
433.56	1344.69
433.669	1343.69
433.778	1340.69
433.886	1356.69
433.995	1338.69
434.104	1420.69
434.213	1371.69
434.322	1399.69
434.431	1451.69
434.54	1459.69
434.649	1570.69
434.757	1452.69
434.866	1455.69
434.975	1475.69
435.084	1427.69
435.193	1442.69
435.301	1599.69
435.41	1670.69
435.519	1684.69
435.628	1330.69
435.737	1331.69
435.845	1244.69
435.954	1192.69
436.063	1297.69
436.171	1252.69
436.28	1228.69
436.389	1358.69
436.498	1259.69
436.606	1264.69
436.715	1327.69
436.823	1264.69
436.932	1136.69
437.041	1153.69
437.149	1235.69
437.258	1142.69
437.367	1114.69
437.475	1215.69
437.584	1334.69
437.692	1167.69
437.801	2433.69
437.91	1263.69
438.018	1107.69
438.127	1108.69
438.235	1215.69
438.344	1148.69
438.452	1211.69
438.561	1165.69
438.669	1149.69
438.778	1058.69
438.886	1169.69
438.995	1122.69
439.103	1110.69
439.212	1146.69
439.32	1121.69
439.428	1101.69
439.537	1116.69
439.645	1194.69
439.754	1135.69
439.862	1096.69
439.97	1159.69
440.079	1174.69
440.187	1054.69
440.295	1263.69
440.404	1182.69
440.512	1170.69
440.62	1233.69
440.729	1225.69
440.837	1260.69
440.945	1762.69
441.054	1291.69
441.162	1192.69
441.27	1305.69
441.378	1295.69
441.487	1206.69
441.595	1596.69
441.703	1415.69
441.811	1290.69
441.92	1235.69
442.028	1237.69
442.136	1200.69
442.244	1240.69
442.352	1270.69
442.461	1160.69
442.569	1164.69
442.677	1180.69
442.785	1260.69
442.893	1170.69
443.001	1199.69
443.109	1218.69
443.217	1131.69
443.325	1154.69
443.434	1630.69
443.542	1389.69
443.65	1217.69
443.758	1415.69
443.866	1267.69
443.974	1438.69
444.082	1306.69
444.19	1340.69
444.298	1377.69
444.406	1408.69
444.514	1406.69
444.622	1464.69
444.73	1469.69
444.838	1405.69
444.946	1446.69
445.054	1310.69
445.161	1316.69
445.269	1279.69
445.377	1243.69
445.485	1275.69
445.593	1249.69
445.701	1402.69
445.809	1324.69
445.917	1285.69
446.025	1127.69
446.132	1293.69
446.24	1324.69
446.348	1287.69
446.456	1162.69
446.564	1248.69
446.671	1285.69
446.779	1180.69
446.887	1199.69
446.995	1227.69
447.102	1279.69
447.21	1242.69
447.318	1266.69
447.426	1160.69
447.533	1380.69
447.641	2251.69
447.749	1295.69
447.856	1188.69
447.964	1282.69
448.072	1274.69
448.179	1146.69
448.287	1230.69
448.395	1267.69
448.502	1197.69
448.61	1243.69
448.718	1241.69
448.825	1240.69
448.933	1166.69
449.04	1245.69
449.148	1189.69
449.256	1262.69
449.363	1290.69
449.471	1219.69
449.578	1355.69
449.686	1238.69
449.793	1388.69
449.901	1222.69
450.008	1281.69
450.116	1354.69
450.223	1296.69
450.331	1368.69
450.438	1393.69
450.546	1410.69
450.653	1449.69
450.76	1408.69
450.868	1410.69
450.975	1543.69
451.083	1449.69
451.19	1450.69
451.297	1363.69
451.405	1439.69
451.512	1439.69
451.619	1491.69
451.727	1535.69
451.834	1453.69
451.941	1406.69
452.049	1423.69
452.156	1468.69
452.263	1458.69
452.371	1449.69
452.478	1538.69
452.585	1513.69
452.692	1386.69
452.8	1526.69
452.907	1578.69
453.014	1481.69
453.121	1493.69
453.229	1596.69
453.336	1527.69
453.443	1649.69
453.55	1512.69
453.657	1512.69
453.765	1514.69
453.872	1593.69
453.979	1552.69
454.086	1529.69
454.193	1560.69
454.3	1549.69
454.407	1608.69
454.514	1641.69
454.621	1551.69
454.729	1543.69
454.836	1556.69
454.943	1596.69
455.05	1575.69
455.157	1649.69
455.264	1624.69
455.371	1560.69
455.478	1554.69
455.585	2705.69
455.692	1681.69
455.799	1712.69
455.906	1537.69
456.013	1643.69
456.12	1556.69
456.227	1591.69
456.334	1699.69
456.44	1752.69
456.547	1633.69
456.654	1645.69
456.761	1616.69
456.868	1746.69
456.975	1771.69
457.082	1665.69
457.189	1572.69
457.296	1710.69
457.402	1711.69
457.509	1655.69
457.616	1755.69
457.723	1961.69
457.83	1676.69
457.936	1708.69
458.043	2004.69
458.15	1711.69
458.257	1870.69
458.363	1840.69
458.47	1865.69
458.577	1875.69
458.684	1808.69
458.79	2001.69
458.897	1900.69
459.004	1991.69
459.11	2025.69
459.217	2015.69
459.324	2073.69
459.43	2165.69
459.537	2241.69
459.644	2041.69
459.75	2094.69
459.857	2398.69
459.964	2160.69
460.07	2218.69
460.177	2151.69
460.283	2201.69
460.39	2347.69
460.496	2276.69
460.603	2226.69
460.71	2213.69
460.816	2251.69
460.923	2163.69
461.029	2222.69
461.136	2247.69
461.242	2153.69
461.349	2184.69
461.455	2183.69
461.562	2422.69
461.668	2282.69
461.774	2192.69
461.881	2337.69
461.987	2253.69
462.094	2286.69
462.2	2422.69
462.307	2381.69
462.413	2274.69
462.519	2344.69
462.626	2515.69
462.732	2518.69
462.838	2637.69
462.945	2729.69
463.051	2686.69
463.157	2647.69
463.264	2585.69
463.37	2553.69
463.476	2465.69
463.583	2530.69
463.689	2398.69
463.795	2403.69
463.901	2502.69
464.008	2583.69
464.114	2400.69
464.22	2496.69
464.326	2419.69
464.433	2312.69
464.539	2355.69
464.645	2334.69
464.751	2386.69
464.857	2200.69
464.963	2122.69
465.07	2108.69
465.176	2033.69
465.282	1983.69
465.388	2022.69
465.494	1847.69
465.6	1841.69
465.706	1756.69
465.812	1721.69
465.918	1858.69
466.024	1715.69
466.131	1758.69
466.237	1688.69
466.343	1671.69
466.449	1547.69
466.555	1615.69
466.661	1634.69
466.767	1579.69
466.873	1627.69
466.979	1726.69
467.085	1546.69
467.191	1654.69
467.296	1541.69
467.402	1551.69
467.508	1598.69
467.614	1644.69
467.72	1549.69
467.826	1511.69
467.932	1513.69
468.038	1484.69
468.144	1484.69
468.25	1455.69
468.355	1443.69
468.461	1397.69
468.567	1353.69
468.673	1487.69
468.779	1414.69
468.885	1417.69
468.99	1405.69
469.096	1475.69
469.202	1498.69
469.308	1399.69
469.413	1520.69
469.519	1419.69
469.625	1442.69
469.731	1479.69
469.836	1435.69
469.942	1593.69
470.048	1502.69
470.153	1513.69
470.259	1445.69
470.365	1568.69
470.47	1531.69
470.576	1466.69
470.682	1433.69
470.787	1454.69
470.893	1392.69
470.999	1427.69
471.104	1500.69
471.21	1330.69
471.315	1226.69
471.421	1323.69
471.527	1479.69
471.632	1424.69
471.738	1373.69
471.843	1310.69
471.949	1361.69
472.054	1292.69
472.16	1311.69
472.265	1262.69
472.371	1249.69
472.476	1307.69
472.582	1262.69
472.687	1257.69
472.793	1217.69
472.898	1178.69
473.003	1198.69
473.109	1202.69
473.214	1200.69
473.32	1134.69
473.425	1235.69
473.53	1263.69
473.636	1167.69
473.741	1222.69
473.847	1217.69
473.952	1185.69
474.057	1233.69
474.163	1288.69
474.268	1157.69
474.373	1222.69
474.478	1169.69
474.584	1167.69
474.689	1252.69
474.794	1238.69
474.9	1373.69
475.005	1179.69
475.11	1336.69
475.215	1264.69
475.321	1199.69
475.426	1343.69
475.531	1347.69
475.636	1165.69
475.741	1173.69
475.846	1339.69
475.952	1403.69
476.057	1296.69
476.162	1280.69
476.267	1393.69
476.372	1435.69
476.477	1220.69
476.582	1339.69
476.687	1231.69
476.793	1283.69
476.898	1281.69
477.003	1254.69
477.108	1270.69
477.213	1206.69
477.318	1232.69
477.423	1370.69
477.528	1375.69
477.633	1346.69
477.738	1327.69
477.843	1316.69
477.948	1359.69
478.053	1301.69
478.158	1361.69
478.263	1464.69
478.368	1288.69
478.473	1473.69
478.578	1445.69
478.682	1363.69
478.787	1413.69
478.892	1431.69
478.997	1486.69
479.102	1417.69
479.207	1419.69
479.312	1510.69
479.417	1389.69
479.521	1415.69
479.626	1563.69
479.731	1456.69
479.836	1445.69
479.941	1648.69
480.045	1568.69
480.15	1529.69
480.255	1575.69
480.36	1498.69
480.465	1506.69
480.569	1676.69
480.674	1502.69
480.779	1425.69
480.883	1433.69
480.988	1529.69
481.093	1400.69
481.197	1495.69
481.302	1513.69
481.407	1540.69
481.511	2939.69
481.616	1601.69
481.721	1480.69
481.825	1665.69
481.93	1425.69
482.035	1467.69
482.139	1497.69
482.244	1499.69
482.348	1548.69
482.453	1454.69
482.557	1482.69
482.662	1518.69
482.767	1474.69
482.871	1446.69
482.976	1554.69
483.08	1510.69
483.185	1668.69
483.289	1579.69
483.394	1554.69
483.498	1567.69
483.603	1491.69
483.707	1606.69
483.811	1534.69
483.916	1678.69
484.02	1614.69
484.125	1604.69
484.229	1570.69
484.333	1728.69
484.438	1576.69
484.542	1587.69
484.647	1712.69
484.751	1673.69
484.855	1678.69
484.96	1655.69
485.064	1715.69
485.168	1679.69
485.273	1667.69
485.377	1750.69
485.481	1891.69
485.585	1739.69
485.69	1764.69
485.794	1774.69
485.898	1749.69
486.002	1810.69
486.107	1863.69
486.211	1742.69
486.315	1821.69
486.419	1813.69
486.524	1800.69
486.628	1745.69
486.732	1772.69
486.836	1832.69
486.94	1850.69
487.044	1829.69
487.148	1766.69
487.253	1774.69
487.357	1876.69
487.461	1892.69
487.565	1820.69
487.669	1777.69
487.773	1817.69
487.877	1845.69
487.981	1843.69
488.085	1857.69
488.189	1769.69
488.293	1917.69
488.397	2225.69
488.501	1832.69
488.605	1784.69
488.709	1890.69
488.813	1841.69
488.917	1802.69
489.021	1815.69
489.125	2032.69
489.229	1826.69
489.333	1986.69
489.437	1884.69
489.541	1806.69
489.645	1777.69
489.749	1926.69
489.853	1891.69
489.956	1852.69
490.06	1909.69
490.164	1852.69
490.268	1785.69
490.372	1894.69
490.476	1894.69
490.579	1828.69
490.683	2349.69
490.787	1973.69
490.891	1888.69
490.995	1846.69
491.098	1900.69
491.202	1828.69
491.306	1934.69
491.41	1954.69
491.513	1776.69
491.617	1852.69
491.721	2000.69
491.824	2029.69
491.928	1780.69
492.032	2014.69
492.136	1866.69
492.239	1858.69
492.343	1863.69
492.446	2261.69
492.55	1870.69
492.654	1850.69
492.757	1846.69
492.861	1894.69
492.965	1881.69
493.068	1907.69
493.172	1863.69
493.275	1817.69
493.379	1814.69
493.482	1929.69
493.586	1952.69
493.689	2080.69
493.793	1927.69
493.896	1948.69
494	1987.69
494.103	2034.69
494.207	2154.69
494.31	2205.69
494.414	1999.69
494.517	1918.69
494.621	1797.69
494.724	1890.69
494.828	1807.69
494.931	1777.69
495.034	1825.69
495.138	2023.69
495.241	1767.69
495.345	2455.69
495.448	2005.69
495.551	1811.69
495.655	1814.69
495.758	1779.69
495.861	1783.69
495.965	1886.69
496.068	1959.69
496.171	1876.69
496.274	1810.69
496.378	1855.69
496.481	1858.69
496.584	1866.69
496.687	1835.69
496.791	1900.69
496.894	1875.69
496.997	1875.69
497.1	1930.69
497.204	1897.69
497.307	1864.69
497.41	2066.69
497.513	2117.69
497.616	1839.69
497.719	1906.69
497.823	1935.69
497.926	1946.69
498.029	1983.69
498.132	2075.69
498.235	2067.69
498.338	2096.69
498.441	2192.69
498.544	2152.69
498.647	2244.69
498.75	2459.69
498.853	2533.69
498.956	2414.69
499.059	2677.69
499.163	2626.69
499.266	2606.69
499.369	2742.69
499.471	2819.69
499.574	2978.69
499.677	3070.69
499.78	3287.69
499.883	3389.69
499.986	3589.69
500.089	3710.69
500.192	3755.69
500.295	3835.69
500.398	3883.69
500.501	3785.69
500.604	3586.69
500.707	3440.69
500.809	3464.69
500.912	3270.69
501.015	3148.69
501.118	2923.69
501.221	2851.69
501.324	2620.69
501.426	2586.69
501.529	2435.69
501.632	2400.69
501.735	2234.69
501.837	2182.69
501.94	2179.69
502.043	2031.69
502.146	2086.69
502.248	1993.69
502.351	1949.69
502.454	1939.69
502.557	1878.69
502.659	1848.69
502.762	1845.69
502.865	1724.69
502.967	1690.69
503.07	1753.69
503.173	1754.69
503.275	1681.69
503.378	1745.69
503.48	1680.69
503.583	1734.69
503.686	1669.69
503.788	1879.69
503.891	1621.69
503.993	1837.69
504.096	1647.69
504.198	1670.69
504.301	1597.69
504.403	1754.69
504.506	1645.69
504.608	1657.69
504.711	1602.69
504.813	1638.69
504.916	1604.69
505.018	1488.69
505.121	1502.69
505.223	1486.69
505.326	1477.69
505.428	1555.69
505.531	1450.69
505.633	1416.69
505.735	1428.69
505.838	1371.69
505.94	1340.69
506.042	1437.69
506.145	1338.69
506.247	1386.69
506.35	1336.69
506.452	1455.69
506.554	1382.69
506.656	1379.69
506.759	1339.69
506.861	1328.69
506.963	1302.69
507.066	1442.69
507.168	1384.69
507.27	1311.69
507.372	1300.69
507.475	1275.69
507.577	1279.69
507.679	1258.69
507.781	1255.69
507.883	1265.69
507.986	1199.69
508.088	1314.69
508.19	1326.69
508.292	1294.69
508.394	1298.69
508.496	1185.69
508.598	1234.69
508.701	1260.69
508.803	1265.69
508.905	1202.69
509.007	1267.69
509.109	1306.69
509.211	1291.69
509.313	1288.69
509.415	1231.69
509.517	1257.69
509.619	1203.69
509.721	1278.69
509.823	1220.69
509.925	1344.69
510.027	1239.69
510.129	1208.69
510.231	1241.69
510.333	1217.69
510.435	1153.69
510.537	1241.69
510.639	1258.69
510.741	1221.69
510.843	1237.69
510.945	1190.69
511.047	1305.69
511.148	1250.69
511.25	1197.69
511.352	1255.69
511.454	1182.69
511.556	1256.69
511.658	1255.69
511.76	1291.69
511.861	1275.69
511.963	1227.69
512.065	1249.69
512.167	1187.69
512.268	1373.69
512.37	1296.69
512.472	1211.69
512.574	1282.69
512.676	1260.69
512.777	1169.69
512.879	1189.69
512.981	1144.69
513.082	1275.69
513.184	1241.69
513.286	1616.69
513.387	1331.69
513.489	1309.69
513.591	1225.69
513.692	1341.69
513.794	1256.69
513.896	1172.69
513.997	1254.69
514.099	1180.69
514.2	1298.69
514.302	1351.69
514.404	1226.69
514.505	1210.69
514.607	1320.69
514.708	1265.69
514.81	1288.69
514.911	1287.69
515.013	1370.69
515.114	1325.69
515.216	1259.69
515.317	1383.69
515.419	1308.69
515.52	1340.69
515.622	1403.69
515.723	1345.69
515.825	1429.69
515.926	1389.69
516.027	1372.69
516.129	1351.69
516.23	1447.69
516.332	1490.69
516.433	1453.69
516.534	1485.69
516.636	1530.69
516.737	1460.69
516.838	2383.69
516.94	1711.69
517.041	1585.69
517.142	1734.69
517.244	1808.69
517.345	1672.69
517.446	1677.69
517.547	1783.69
517.649	1703.69
517.75	1679.69
517.851	1656.69
517.952	1951.69
518.054	1724.69
518.155	1755.69
518.256	1610.69
518.357	1723.69
518.458	1507.69
518.56	1560.69
518.661	1546.69
518.762	1478.69
518.863	1658.69
518.964	1625.69
519.065	1497.69
519.166	1507.69
519.268	1469.69
519.369	1639.69
519.47	1472.69
519.571	1562.69
519.672	1361.69
519.773	1379.69
519.874	1459.69
519.975	1494.69
520.076	1405.69
520.177	1520.69
520.278	1484.69
520.379	1461.69
520.48	1384.69
520.581	1418.69
520.682	1412.69
520.783	1419.69
520.884	1502.69
520.985	1479.69
521.086	1405.69
521.187	1483.69
521.288	1410.69
521.389	1381.69
521.489	1466.69
521.59	1426.69
521.691	1395.69
521.792	1329.69
521.893	1591.69
521.994	1470.69
522.095	1456.69
522.195	1542.69
522.296	1480.69
522.397	1471.69
522.498	1514.69
522.599	1385.69
522.699	1417.69
522.8	1484.69
522.901	1492.69
523.002	1417.69
523.102	1601.69
523.203	1509.69
523.304	1512.69
523.405	1391.69
523.505	1472.69
523.606	1410.69
523.707	1480.69
523.807	1469.69
523.908	1404.69
524.009	1528.69
524.109	1484.69
524.21	1464.69
524.31	1480.69
524.411	1554.69
524.512	1602.69
524.612	1548.69
524.713	1606.69
524.813	1514.69
524.914	1637.69
525.014	6011.69
525.115	1904.69
525.216	1401.69
525.316	1473.69
525.417	1485.69
525.517	1444.69
525.618	1452.69
525.718	1423.69
525.819	1474.69
525.919	1519.69
526.019	1417.69
526.12	1552.69
526.22	1407.69
526.321	1425.69
526.421	1423.69
526.522	1390.69
526.622	1388.69
526.722	1403.69
526.823	1428.69
526.923	1496.69
527.023	1518.69
527.124	1411.69
527.224	1475.69
527.324	1339.69
527.425	1485.69
527.525	1375.69
527.625	1435.69
527.726	1433.69
527.826	1474.69
527.926	1385.69
528.026	1466.69
528.127	1406.69
528.227	1411.69
528.327	1511.69
528.427	1451.69
528.528	1417.69
528.628	1466.69
528.728	1442.69
528.828	1495.69
528.928	1466.69
529.029	1494.69
529.129	1491.69
529.229	1479.69
529.329	1518.69
529.429	1452.69
529.529	1482.69
529.629	1516.69
529.729	1434.69
529.829	1491.69
529.93	1374.69
530.03	1474.69
530.13	1440.69
530.23	1426.69
530.33	1463.69
530.43	1414.69
530.53	1407.69
530.63	1414.69
530.73	1334.69
530.83	1355.69
530.93	1366.69
531.03	1354.69
531.13	1401.69
531.23	1335.69
531.33	1446.69
531.429	1429.69
531.529	1414.69
531.629	1410.69
531.729	1287.69
531.829	1318.69
531.929	1368.69
532.029	1390.69
532.129	1338.69
532.229	1378.69
532.328	1356.69
532.428	1340.69
532.528	1338.69
532.628	1396.69
532.728	1355.69
532.827	1303.69
532.927	1428.69
533.027	1312.69
533.127	1441.69
533.227	1416.69
533.326	1345.69
533.426	1286.69
533.526	1461.69
533.625	1468.69
533.725	1533.69
533.825	1427.69
533.924	1283.69
534.024	1187.69
534.124	1234.69
534.223	1338.69
534.323	1591.69
534.423	1293.69
534.522	1312.69
534.622	1172.69
534.722	1231.69
534.821	1296.69
534.921	1212.69
535.02	1234.69
535.12	1366.69
535.219	1334.69
535.319	1292.69
535.419	1295.69
535.518	1207.69
535.618	1258.69
535.717	1299.69
535.817	1224.69
535.916	1083.69
536.016	1278.69
536.115	1194.69
536.215	1177.69
536.314	1123.69
536.413	1170.69
536.513	1150.69
536.612	1117.69
536.712	1112.69
536.811	1139.69
536.91	1068.69
537.01	1121.69
537.109	1187.69
537.209	1090.69
537.308	1091.69
537.407	1167.69
537.507	1112.69
537.606	1139.69
537.705	1234.69
537.805	1138.69
537.904	1038.69
538.003	1198.69
538.102	1215.69
538.202	1146.69
538.301	1159.69
538.4	1157.69
538.499	1121.69
538.599	1161.69
538.698	1321.69
538.797	1134.69
538.896	1175.69
538.995	1169.69
539.095	1065.69
539.194	1281.69
539.293	1120.69
539.392	1128.69
539.491	1104.69
539.59	1130.69
539.689	1256.69
539.789	1198.69
539.888	981.69
539.987	1005.69
540.086	1039.69
540.185	1055.69
540.284	1172.69
540.383	1059.69
540.482	1024.69
540.581	1095.69
540.68	1082.69
540.779	1104.69
540.878	1083.69
540.977	1111.69
541.076	1075.69
541.175	1101.69
541.274	1285.69
541.373	1127.69
541.472	1105.69
541.571	1098.69
541.67	2079.69
541.769	1176.69
541.868	1062.69
541.966	1102.69
542.065	1077.69
542.164	1127.69
542.263	1075.69
542.362	1071.69
542.461	1125.69
542.56	1134.69
542.658	1114.69
542.757	1006.69
542.856	990.69
542.955	980.69
543.054	960.69
543.152	1158.69
543.251	1060.69
543.35	1171.69
543.449	1063.69
543.547	1026.69
543.646	989.69
543.745	1083.69
543.843	1128.69
543.942	1050.69
544.041	1003.69
544.14	1097.69
544.238	1005.69
544.337	1190.69
544.436	1134.69
544.534	1136.69
544.633	1064.69
544.731	1085.69
544.83	1079.69
544.929	983.69
545.027	1089.69
545.126	1104.69
545.224	1116.69
545.323	1055.69
545.421	1128.69
545.52	1066.69
545.619	1038.69
545.717	1124.69
545.816	1137.69
545.914	1111.69
546.013	1241.69
546.111	1214.69
546.209	997.69
546.308	1033.69
546.406	1064.69
546.505	1159.69
546.603	1114.69
546.702	1023.69
546.8	1034.69
546.899	1018.69
546.997	1115.69
547.095	1075.69
547.194	1098.69
547.292	1056.69
547.39	1059.69
547.489	1031.69
547.587	1263.69
547.685	1065.69
547.784	1249.69
547.882	1107.69
547.98	1003.69
548.079	1058.69
548.177	1052.69
548.275	1026.69
548.373	1145.69
548.472	1052.69
548.57	1053.69
548.668	1046.69
548.766	1015.69
548.864	1156.69
548.963	1072.69
549.061	1153.69
549.159	1016.69
549.257	1127.69
549.355	1030.69
549.454	1026.69
549.552	1131.69
549.65	1004.69
549.748	1032.69
549.846	1054.69
549.944	998.69
550.042	1009.69
550.14	1038.69
550.238	1062.69
550.336	982.69
550.434	1016.69
550.532	1020.69
550.631	1087.69
550.729	1060.69
550.827	1126.69
550.925	978.69
551.023	976.69
551.121	961.69
551.218	963.69
551.316	953.69
551.414	993.69
551.512	928.69
551.61	988.69
551.708	1029.69
551.806	1042.69
551.904	995.69
552.002	960.69
552.1	1058.69
552.198	950.69
552.296	1120.69
552.393	1204.69
552.491	1196.69
552.589	1136.69
552.687	1194.69
552.785	1125.69
552.882	1214.69
552.98	1285.69
553.078	1203.69
553.176	1205.69
553.274	1053.69
553.371	1138.69
553.469	1132.69
553.567	1072.69
553.665	1132.69
553.762	1430.69
553.86	1153.69
553.958	1149.69
554.055	1074.69
554.153	1123.69
554.251	1074.69
554.348	1099.69
554.446	1014.69
554.544	1070.69
554.641	1315.69
554.739	978.69
554.837	1007.69
554.934	1070.69
555.032	962.69
555.129	945.69
555.227	1333.69
555.324	5174.69
555.422	1371.69
555.519	1032.69
555.617	967.69
555.715	911.69
555.812	2336.69
555.91	1115.69
556.007	1021.69
556.105	933.69
556.202	1021.69
556.299	938.69
556.397	951.69
556.494	964.69
556.592	951.69
556.689	983.69
556.787	960.69
556.884	887.69
556.981	913.69
557.079	881.69
557.176	1019.69
557.273	1016.69
557.371	1023.69
557.468	986.69
557.566	967.69
557.663	965.69
557.76	987.69
557.857	929.69
557.955	973.69
558.052	1082.69
558.149	1029.69
558.247	1064.69
558.344	946.69
558.441	937.69
558.538	912.69
558.636	907.69
558.733	1012.69
558.83	962.69
558.927	982.69
559.024	1008.69
559.122	883.69
559.219	940.69
559.316	1052.69
559.413	1025.69
559.51	955.69
559.607	975.69
559.704	1002.69
559.801	972.69
559.899	907.69
559.996	1168.69
560.093	1019.69
560.19	897.69
560.287	1072.69
560.384	1082.69
560.481	943.69
560.578	985.69
560.675	953.69
560.772	1032.69
560.869	966.69
560.966	1120.69
561.063	966.69
561.16	1062.69
561.257	1004.69
561.354	996.69
561.451	941.69
561.548	1031.69
561.645	1096.69
561.742	966.69
561.838	985.69
561.935	949.69
562.032	958.69
562.129	984.69
562.226	988.69
562.323	962.69
562.42	1025.69
562.516	1011.69
562.613	998.69
562.71	1010.69
562.807	1640.69
562.904	955.69
563	979.69
563.097	986.69
563.194	967.69
563.291	966.69
563.387	1000.69
563.484	1020.69
563.581	998.69
563.678	953.69
563.774	1368.69
563.871	1011.69
563.968	989.69
564.064	1048.69
564.161	958.69
564.258	984.69
564.354	1150.69
564.451	999.69
564.548	1061.69
564.644	1070.69
564.741	1024.69
564.837	1013.69
564.934	1023.69
565.031	1089.69
565.127	1026.69
565.224	1113.69
565.32	1266.69
565.417	1108.69
565.513	1138.69
565.61	1135.69
565.706	1145.69
565.803	1211.69
565.899	1211.69
565.996	1217.69
566.092	1168.69
566.189	1271.69
566.285	1281.69
566.382	1278.69
566.478	1343.69
566.574	1488.69
566.671	1361.69
566.767	1383.69
566.864	1398.69
566.96	1385.69
567.056	1345.69
567.153	1631.69
567.249	1498.69
567.345	1464.69
567.442	1551.69
567.538	1570.69
567.634	1519.69
567.731	1532.69
567.827	1642.69
567.923	1587.69
568.019	1419.69
568.116	1393.69
568.212	1297.69
568.308	1412.69
568.404	1364.69
568.501	1183.69
568.597	1274.69
568.693	1194.69
568.789	1692.69
568.885	1157.69
568.982	1115.69
569.078	1094.69
569.174	1091.69
569.27	979.69
569.366	1066.69
569.462	996.69
569.558	954.69
569.655	1069.69
569.751	931.69
569.847	1014.69
569.943	1039.69
570.039	924.69
570.135	1332.69
570.231	982.69
570.327	1087.69
570.423	1042.69
570.519	976.69
570.615	945.69
570.711	1031.69
570.807	1015.69
570.903	1009.69
570.999	1024.69
571.095	980.69
571.191	998.69
571.287	945.69
571.383	1000.69
571.479	995.69
571.574	1004.69
571.67	910.69
571.766	1084.69
571.862	936.69
571.958	899.69
572.054	953.69
572.15	887.69
572.246	822.69
572.341	970.69
572.437	911.69
572.533	933.69
572.629	866.69
572.725	848.69
572.82	813.69
572.916	895.69
573.012	838.69
573.108	903.69
573.203	814.69
573.299	811.69
573.395	841.69
573.49	729.69
573.586	764.69
573.682	830.69
573.778	883.69
573.873	759.69
573.969	808.69
574.065	800.69
574.16	801.69
574.256	787.69
574.351	866.69
574.447	749.69
574.543	775.69
574.638	914.69
574.734	807.69
574.829	1007.69
574.925	860.69
575.02	792.69
575.116	766.69
575.212	837.69
575.307	896.69
575.403	714.69
575.498	819.69
575.594	748.69
575.689	766.69
575.784	785.69
575.88	838.69
575.975	821.69
576.071	774.69
576.166	790.69
576.262	778.69
576.357	717.69
576.452	897.69
576.548	762.69
576.643	746.69
576.739	813.69
576.834	770.69
576.929	766.69
577.025	1289.69
577.12	739.69
577.215	649.69
577.311	684.69
577.406	785.69
577.501	844.69
577.597	669.69
577.692	869.69
577.787	795.69
577.882	659.69
577.978	727.69
578.073	691.69
578.168	646.69
578.263	647.69
578.358	666.69
578.454	650.69
578.549	636.69
578.644	669.69
578.739	710.69
578.834	637.69
578.929	622.69
579.025	608.69
579.12	658.69
579.215	911.69
579.31	761.69
579.405	607.69
579.5	732.69
579.595	707.69
579.69	593.69
579.785	584.69
579.88	632.69
579.975	609.69
580.07	613.69
580.165	686.69
580.26	689.69
580.355	643.69
580.45	757.69
580.545	638.69
580.64	635.69
580.735	712.69
580.83	695.69
580.925	588.69
581.02	583.69
581.115	632.69
581.21	547.69
581.305	610.69
581.4	646.69
581.495	569.69
581.589	555.69
581.684	584.69
581.779	634.69
581.874	587.69
581.969	695.69
582.064	581.69
582.158	542.69
582.253	523.69
582.348	616.69
582.443	577.69
582.537	603.69
582.632	808.69
582.727	592.69
582.822	552.69
582.916	579.69
583.011	593.69
583.106	598.69
583.201	588.69
583.295	585.69
583.39	524.69
583.485	512.69
583.579	1997.69
583.674	698.69
583.769	754.69
583.863	608.69
583.958	536.69
584.052	513.69
584.147	553.69
584.242	497.69
584.336	532.69
584.431	739.69
584.525	505.69
584.62	626.69
584.714	606.69
584.809	593.69
584.903	549.69
584.998	560.69
585.092	523.69
585.187	528.69
585.281	483.69
585.376	593.69
585.47	528.69
585.565	529.69
585.659	510.69
585.754	462.69
585.848	489.69
585.942	529.69
586.037	508.69
586.131	2371.69
586.226	658.69
586.32	556.69
586.414	416.69
586.509	579.69
586.603	613.69
586.697	489.69
586.792	483.69
586.886	494.69
586.98	559.69
587.075	486.69
587.169	486.69
587.263	607.69
587.357	530.69
587.452	439.69
587.546	583.69
587.64	418.69
587.734	447.69
587.829	545.69
587.923	461.69
588.017	465.69
588.111	469.69
588.205	518.69
588.3	443.69
588.394	435.69
588.488	424.69
588.582	468.69
588.676	482.69
588.77	500.69
588.864	563.69
588.958	449.69
589.052	450.69
589.147	532.69
589.241	490.69
589.335	507.69
589.429	532.69
589.523	488.69
589.617	514.69
589.711	508.69
589.805	508.69
589.899	547.69
589.993	450.69
590.087	400.69
590.181	380.69
590.275	498.69
590.369	447.69
590.462	397.69
590.556	459.69
590.65	390.69
590.744	423.69
590.838	420.69
590.932	422.69
591.026	503.69
591.12	584.69
591.214	458.69
591.307	461.69
591.401	456.69
591.495	549.69
591.589	455.69
591.683	447.69
591.777	568.69
591.87	738.69
591.964	480.69
592.058	503.69
592.152	513.69
592.245	467.69
592.339	540.69
592.433	609.69
592.527	528.69
592.62	465.69
592.714	500.69
592.808	511.69
592.901	540.69
592.995	505.69
593.089	686.69
593.182	597.69
593.276	555.69
593.37	483.69
593.463	479.69
593.557	550.69
593.65	456.69
593.744	471.69
593.837	583.69
593.931	514.69
594.025	2524.69
594.118	708.69
594.212	522.69
594.305	476.69
594.399	505.69
594.492	816.69
594.586	518.69
594.679	434.69
594.773	488.69
594.866	539.69
594.96	466.69
595.053	426.69
595.146	483.69
595.24	426.69
595.333	400.69
595.427	411.69
595.52	389.69
595.614	544.69
595.707	478.69
595.8	403.69
595.894	426.69
595.987	391.69
596.08	336.69
596.174	717.69
596.267	522.69
596.36	495.69
596.454	551.69
596.547	479.69
596.64	424.69
596.733	354.69
596.827	434.69
596.92	468.69
597.013	318.69
597.106	371.69
597.2	405.69
597.293	340.69
597.386	567.69
597.479	484.69
597.572	396.69
597.666	339.69
597.759	366.69
597.852	485.69
597.945	302.69
598.038	343.69
598.131	411.69
598.224	329.69
598.317	480.69
598.411	448.69
598.504	342.69
598.597	398.69
598.69	369.69
598.783	378.69
598.876	371.69
598.969	364.69
599.062	351.69
599.155	413.69
599.248	350.69
599.341	422.69
599.434	331.69
599.527	421.69
599.62	395.69
599.713	343.69
599.806	370.69
599.899	522.69
599.991	345.69
600.084	554.69
600.177	361.69
600.27	362.69
600.363	477.69
600.456	331.69
600.549	390.69
600.642	303.69
600.734	350.69
600.827	397.69
600.92	416.69
601.013	317.69
601.106	435.69
601.199	342.69
601.291	328.69
601.384	357.69
601.477	508.69
601.57	406.69
601.662	368.69
601.755	415.69
601.848	385.69
601.94	316.69
602.033	472.69
602.126	384.69
602.219	343.69
602.311	494.69
602.404	316.69
602.497	360.69
602.589	403.69
602.682	368.69
602.774	358.69
602.867	383.69
602.96	390.69
603.052	337.69
603.145	349.69
603.237	364.69
603.33	344.69
603.422	464.69
603.515	368.69
603.608	328.69
603.7	367.69
603.793	344.69
603.885	393.69
603.978	300.69
604.07	326.69
604.163	308.69
604.255	350.69
604.347	311.69
604.44	316.69
604.532	365.69
604.625	328.69
604.717	362.69
604.81	352.69
604.902	306.69
604.994	329.69
605.087	325.69
605.179	346.69
605.271	356.69
605.364	364.69
605.456	344.69
605.548	326.69
605.641	388.69
605.733	317.69
605.825	353.69
605.918	325.69
606.01	462.69
606.102	674.69
606.194	386.69
606.287	442.69
606.379	318.69
606.471	364.69
606.563	376.69
606.655	379.69
606.748	396.69
606.84	378.69
606.932	366.69
607.024	346.69
607.116	349.69
607.208	329.69
607.301	351.69
607.393	339.69
607.485	343.69
607.577	366.69
607.669	451.69
607.761	427.69
607.853	566.69
607.945	340.69
608.037	339.69
608.129	303.69
608.221	312.69
608.313	378.69
608.405	365.69
608.497	336.69
608.589	378.69
608.681	357.69
608.773	368.69
608.865	403.69
608.957	358.69
609.049	330.69
609.141	421.69
609.233	324.69
609.325	282.69
609.417	265.69
609.509	400.69
609.601	407.69
609.693	369.69
609.784	357.69
609.876	327.69
609.968	356.69
610.06	2130.69
610.152	531.69
610.244	982.69
610.335	426.69
610.427	326.69
610.519	293.69
610.611	355.69
610.702	342.69
610.794	334.69
610.886	363.69
610.978	380.69
611.069	714.69
611.161	336.69
611.253	425.69
611.344	280.69
611.436	225.69
611.528	363.69
611.62	261.69
611.711	263.69
611.803	290.69
611.894	294.69
611.986	225.69
612.078	247.69
612.169	339.69
612.261	295.69
612.352	244.69
612.444	279.69
612.536	311.69
612.627	234.69
612.719	248.69
612.81	219.69
612.902	188.69
612.993	250.69
613.085	281.69
613.176	135.69
613.268	223.69
613.359	273.69
613.451	196.69
613.542	248.69
613.634	267.69
613.725	247.69
613.816	268.69
613.908	202.69
613.999	216.69
614.091	165.69
614.182	152.69
614.273	204.69
614.365	126.69
614.456	99.69
614.547	175.69
614.639	114.69
614.73	124.69
614.821	284.69
614.913	91.69
615.004	79.69
615.095	117.69
615.187	106.69
