Data from 14g_HRC06701__28__211.txt Node

Date: Thu Apr 18 01:58:22 CDT 2024
User: Estudiantes 2
Spectrometer: HR+C0670
Trigger mode: 4
Integration Time (sec): 1.000000E0
Scans to average: 1
Electric dark correction enabled: true
Nonlinearity correction enabled: false
Boxcar width: 0
XAxis mode: Wavelengths
Number of Pixels in Spectrum: 2048
>>>>>Begin Spectral Data<<<<<
407.81	-137.12
407.921	-137.12
408.032	-137.12
408.143	-116.12
408.254	-123.12
408.365	34.88
408.476	280.88
408.587	-41.12
408.699	-23.12
408.81	-7.12
408.921	-69.12
409.032	-28.12
409.143	57.88
409.254	14.88
409.365	67.88
409.476	-2.12
409.587	39.88
409.698	50.88
409.809	80.88
409.92	25.88
410.031	-44.12
410.142	89.88
410.253	51.88
410.364	32.88
410.475	490.88
410.585	2419.88
410.696	2549.88
410.807	2561.88
410.918	2501.88
411.029	2614.88
411.14	2617.88
411.251	2531.88
411.362	2690.88
411.472	2687.88
411.583	2562.88
411.694	2731.88
411.805	2568.88
411.916	2659.88
412.026	2762.88
412.137	2621.88
412.248	2607.88
412.359	2673.88
412.47	2583.88
412.58	2579.88
412.691	2582.88
412.802	2576.88
412.912	2573.88
413.023	2570.88
413.134	2642.88
413.245	2660.88
413.355	2573.88
413.466	2540.88
413.577	2520.88
413.687	2623.88
413.798	2442.88
413.909	2658.88
414.019	2558.88
414.13	2571.88
414.24	2561.88
414.351	2659.88
414.462	2820.88
414.572	2669.88
414.683	2624.88
414.793	2611.88
414.904	2968.88
415.014	2582.88
415.125	2565.88
415.235	2686.88
415.346	2717.88
415.456	2724.88
415.567	2539.88
415.677	2601.88
415.788	2576.88
415.898	2583.88
416.009	2544.88
416.119	2570.88
416.23	2522.88
416.34	2546.88
416.45	2618.88
416.561	3334.88
416.671	2686.88
416.782	2627.88
416.892	2565.88
417.002	2627.88
417.113	2752.88
417.223	2658.88
417.333	2560.88
417.444	2690.88
417.554	2744.88
417.664	2718.88
417.775	2676.88
417.885	2762.88
417.995	2728.88
418.106	2999.88
418.216	2842.88
418.326	2828.88
418.436	2934.88
418.547	2887.88
418.657	2837.88
418.767	2998.88
418.877	3015.88
418.987	2969.88
419.098	2909.88
419.208	2975.88
419.318	3039.88
419.428	3008.88
419.538	2940.88
419.648	3004.88
419.759	2958.88
419.869	2933.88
419.979	2981.88
420.089	3033.88
420.199	2932.88
420.309	2991.88
420.419	2921.88
420.529	3030.88
420.639	3522.88
420.749	3071.88
420.859	2999.88
420.969	3112.88
421.079	3339.88
421.189	3119.88
421.299	3107.88
421.409	3087.88
421.519	3085.88
421.629	3198.88
421.739	3113.88
421.849	3094.88
421.959	3085.88
422.069	3238.88
422.179	3135.88
422.289	3128.88
422.399	3299.88
422.509	3421.88
422.619	5785.88
422.729	3565.88
422.838	3331.88
422.948	3388.88
423.058	3330.88
423.168	3428.88
423.278	3374.88
423.388	3434.88
423.498	3604.88
423.607	3538.88
423.717	3800.88
423.827	3914.88
423.937	3626.88
424.046	3695.88
424.156	3721.88
424.266	3703.88
424.376	3920.88
424.485	3832.88
424.595	3763.88
424.705	3689.88
424.815	3734.88
424.924	4174.88
425.034	3770.88
425.144	3676.88
425.253	3827.88
425.363	3910.88
425.473	3922.88
425.582	3815.88
425.692	3877.88
425.801	3814.88
425.911	4086.88
426.021	4057.88
426.13	4088.88
426.24	4084.88
426.349	4073.88
426.459	4002.88
426.568	3992.88
426.678	4124.88
426.787	4068.88
426.897	4099.88
427.006	4111.88
427.116	4239.88
427.225	4008.88
427.335	4240.88
427.444	4109.88
427.554	4166.88
427.663	4189.88
427.773	4331.88
427.882	4313.88
427.992	4290.88
428.101	4267.88
428.21	4266.88
428.32	4364.88
428.429	4282.88
428.539	4638.88
428.648	4350.88
428.757	4398.88
428.867	4570.88
428.976	4646.88
429.085	4487.88
429.195	4539.88
429.304	4515.88
429.413	4583.88
429.523	4671.88
429.632	4667.88
429.741	4623.88
429.85	4526.88
429.96	4589.88
430.069	4562.88
430.178	4737.88
430.287	4994.88
430.397	4633.88
430.506	4719.88
430.615	4731.88
430.724	4793.88
430.833	4841.88
430.943	4791.88
431.052	4845.88
431.161	4766.88
431.27	4992.88
431.379	4889.88
431.488	5221.88
431.597	5012.88
431.706	5186.88
431.816	5022.88
431.925	5060.88
432.034	5033.88
432.143	5109.88
432.252	5085.88
432.361	5125.88
432.47	5103.88
432.579	5147.88
432.688	5047.88
432.797	5180.88
432.906	5044.88
433.015	5151.88
433.124	5509.88
433.233	5151.88
433.342	5160.88
433.451	5251.88
433.56	5151.88
433.669	5316.88
433.778	5180.88
433.886	5256.88
433.995	5247.88
434.104	5375.88
434.213	5347.88
434.322	5384.88
434.431	5638.88
434.54	5703.88
434.649	5746.88
434.757	5739.88
434.866	5650.88
434.975	5576.88
435.084	5519.88
435.193	5469.88
435.301	5513.88
435.41	5547.88
435.519	5657.88
435.628	5089.88
435.737	4920.88
435.845	4954.88
435.954	4881.88
436.063	4819.88
436.171	4867.88
436.28	4971.88
436.389	5009.88
436.498	4839.88
436.606	4816.88
436.715	5086.88
436.823	4722.88
436.932	4636.88
437.041	4681.88
437.149	4699.88
437.258	4584.88
437.367	4518.88
437.475	4571.88
437.584	4766.88
437.692	4590.88
437.801	6074.88
437.91	4574.88
438.018	4447.88
438.127	4433.88
438.235	4504.88
438.344	4563.88
438.452	4453.88
438.561	4387.88
438.669	4346.88
438.778	4344.88
438.886	4397.88
438.995	4263.88
439.103	4404.88
439.212	4350.88
439.32	4514.88
439.428	4422.88
439.537	4347.88
439.645	4543.88
439.754	4531.88
439.862	4339.88
439.97	4446.88
440.079	4515.88
440.187	4496.88
440.295	4623.88
440.404	4476.88
440.512	4597.88
440.62	4599.88
440.729	4638.88
440.837	4731.88
440.945	5409.88
441.054	4889.88
441.162	4780.88
441.27	4983.88
441.378	4904.88
441.487	4938.88
441.595	5336.88
441.703	5071.88
441.811	4877.88
441.92	4827.88
442.028	4658.88
442.136	4865.88
442.244	4847.88
442.352	4798.88
442.461	4621.88
442.569	4749.88
442.677	4825.88
442.785	4786.88
442.893	4720.88
443.001	4739.88
443.109	4710.88
443.217	4715.88
443.325	4703.88
443.434	5287.88
443.542	5065.88
443.65	4799.88
443.758	4976.88
443.866	4867.88
443.974	5296.88
444.082	5071.88
444.19	5165.88
444.298	5226.88
444.406	5388.88
444.514	5473.88
444.622	5523.88
444.73	5617.88
444.838	5435.88
444.946	5437.88
445.054	5268.88
445.161	5190.88
445.269	4988.88
445.377	5065.88
445.485	4952.88
445.593	4945.88
445.701	5112.88
445.809	4960.88
445.917	4888.88
446.025	4809.88
446.132	5017.88
446.24	4912.88
446.348	4882.88
446.456	4802.88
446.564	4771.88
446.671	4771.88
446.779	4740.88
446.887	4655.88
446.995	4707.88
447.102	4758.88
447.21	4727.88
447.318	4793.88
447.426	4669.88
447.533	4992.88
447.641	5801.88
447.749	4811.88
447.856	4828.88
447.964	4633.88
448.072	4845.88
448.179	4764.88
448.287	4841.88
448.395	4809.88
448.502	4768.88
448.61	4783.88
448.718	4710.88
448.825	4759.88
448.933	4870.88
449.04	4827.88
449.148	4778.88
449.256	4956.88
449.363	4817.88
449.471	4921.88
449.578	5007.88
449.686	4897.88
449.793	5180.88
449.901	4985.88
450.008	5148.88
450.116	5158.88
450.223	5034.88
450.331	5359.88
450.438	5380.88
450.546	5354.88
450.653	5467.88
450.76	5406.88
450.868	5402.88
450.975	5635.88
451.083	5423.88
451.19	5533.88
451.297	5413.88
451.405	5587.88
451.512	5479.88
451.619	5590.88
451.727	5705.88
451.834	5518.88
451.941	5658.88
452.049	5557.88
452.156	5559.88
452.263	5761.88
452.371	5792.88
452.478	5807.88
452.585	5853.88
452.692	5732.88
452.8	5785.88
452.907	5935.88
453.014	5826.88
453.121	5996.88
453.229	5961.88
453.336	6046.88
453.443	6015.88
453.55	5863.88
453.657	5927.88
453.765	6004.88
453.872	5933.88
453.979	6040.88
454.086	6088.88
454.193	6215.88
454.3	5978.88
454.407	6160.88
454.514	6258.88
454.621	6006.88
454.729	6116.88
454.836	6303.88
454.943	6224.88
455.05	6168.88
455.157	6332.88
455.264	6291.88
455.371	6285.88
455.478	6330.88
455.585	6645.88
455.692	6396.88
455.799	6518.88
455.906	6456.88
456.013	6351.88
456.12	6392.88
456.227	6513.88
456.334	6470.88
456.44	6695.88
456.547	6627.88
456.654	6520.88
456.761	6662.88
456.868	6690.88
456.975	6814.88
457.082	6675.88
457.189	6581.88
457.296	6788.88
457.402	6788.88
457.509	6855.88
457.616	6967.88
457.723	7164.88
457.83	7006.88
457.936	6995.88
458.043	7440.88
458.15	7178.88
458.257	7299.88
458.363	7468.88
458.47	7416.88
458.577	7631.88
458.684	7584.88
458.79	7748.88
458.897	7795.88
459.004	8059.88
459.11	8062.88
459.217	8061.88
459.324	8183.88
459.43	8371.88
459.537	8490.88
459.644	8450.88
459.75	8458.88
459.857	9085.88
459.964	8679.88
460.07	8736.88
460.177	8804.88
460.283	9004.88
460.39	9255.88
460.496	8979.88
460.603	8983.88
460.71	9059.88
460.816	9001.88
460.923	8927.88
461.029	9007.88
461.136	9095.88
461.242	8935.88
461.349	8962.88
461.455	9059.88
461.562	9283.88
461.668	9222.88
461.774	9203.88
461.881	9246.88
461.987	9386.88
462.094	9637.88
462.2	9607.88
462.307	9467.88
462.413	9621.88
462.519	9858.88
462.626	10330.88
462.732	10320.88
462.838	10812.88
462.945	10933.88
463.051	10963.88
463.157	10940.88
463.264	10483.88
463.37	10277.88
463.476	10052.88
463.583	10010.88
463.689	9810.88
463.795	9861.88
463.901	9879.88
464.008	10037.88
464.114	9856.88
464.22	9871.88
464.326	9912.88
464.433	9651.88
464.539	9577.88
464.645	9133.88
464.751	9201.88
464.857	8943.88
464.963	8562.88
465.07	8532.88
465.176	8179.88
465.282	8019.88
465.388	8003.88
465.494	7659.88
465.6	7582.88
465.706	7290.88
465.812	7204.88
465.918	7385.88
466.024	7108.88
466.131	7130.88
466.237	6970.88
466.343	6810.88
466.449	6648.88
466.555	6651.88
466.661	6481.88
466.767	6477.88
466.873	6484.88
466.979	6624.88
467.085	6413.88
467.191	6414.88
467.296	6436.88
467.402	6279.88
467.508	6368.88
467.614	6413.88
467.72	6017.88
467.826	6006.88
467.932	5929.88
468.038	5935.88
468.144	5892.88
468.25	5808.88
468.355	5856.88
468.461	5846.88
468.567	5770.88
468.673	5763.88
468.779	5735.88
468.885	5653.88
468.99	5720.88
469.096	5834.88
469.202	5831.88
469.308	5806.88
469.413	5906.88
469.519	5877.88
469.625	5868.88
469.731	5848.88
469.836	5803.88
469.942	6063.88
470.048	6015.88
470.153	5786.88
470.259	5923.88
470.365	6009.88
470.47	5882.88
470.576	5797.88
470.682	5778.88
470.787	5760.88
470.893	5631.88
470.999	5621.88
471.104	5655.88
471.21	5386.88
471.315	5317.88
471.421	5413.88
471.527	5534.88
471.632	5382.88
471.738	5352.88
471.843	5173.88
471.949	5210.88
472.054	5161.88
472.16	5097.88
472.265	5143.88
472.371	5159.88
472.476	5212.88
472.582	5155.88
472.687	4879.88
472.793	4956.88
472.898	4995.88
473.003	4914.88
473.109	4784.88
473.214	4734.88
473.32	4830.88
473.425	4953.88
473.53	4861.88
473.636	4738.88
473.741	4770.88
473.847	4743.88
473.952	4838.88
474.057	4703.88
474.163	4923.88
474.268	4758.88
474.373	4824.88
474.478	4749.88
474.584	4740.88
474.689	4710.88
474.794	4866.88
474.9	5075.88
475.005	4792.88
475.11	4943.88
475.215	4782.88
475.321	4745.88
475.426	4909.88
475.531	4852.88
475.636	4775.88
475.741	4662.88
475.846	5007.88
475.952	5010.88
476.057	4922.88
476.162	4974.88
476.267	5068.88
476.372	5162.88
476.477	4843.88
476.582	5024.88
476.687	4933.88
476.793	4911.88
476.898	5064.88
477.003	5026.88
477.108	5055.88
477.213	5144.88
477.318	5094.88
477.423	5214.88
477.528	5308.88
477.633	5315.88
477.738	5267.88
477.843	5265.88
477.948	5389.88
478.053	5415.88
478.158	5389.88
478.263	5518.88
478.368	5454.88
478.473	5600.88
478.578	5692.88
478.682	5534.88
478.787	5695.88
478.892	5704.88
478.997	5631.88
479.102	5500.88
479.207	5640.88
479.312	5864.88
479.417	5740.88
479.521	5748.88
479.626	5957.88
479.731	5825.88
479.836	5871.88
479.941	6098.88
480.045	5995.88
480.15	6121.88
480.255	6158.88
480.36	6100.88
480.465	6177.88
480.569	6414.88
480.674	6011.88
480.779	5917.88
480.883	5956.88
480.988	5988.88
481.093	5930.88
481.197	5920.88
481.302	5933.88
481.407	5939.88
481.511	7114.88
481.616	6066.88
481.721	5866.88
481.825	6158.88
481.93	5831.88
482.035	5870.88
482.139	6001.88
482.244	5878.88
482.348	5980.88
482.453	5956.88
482.557	6017.88
482.662	6022.88
482.767	5884.88
482.871	5979.88
482.976	6044.88
483.08	6133.88
483.185	6261.88
483.289	6195.88
483.394	6272.88
483.498	6320.88
483.603	6246.88
483.707	6387.88
483.811	6438.88
483.916	6508.88
484.02	6498.88
484.125	6532.88
484.229	6521.88
484.333	6748.88
484.438	6529.88
484.542	6637.88
484.647	6624.88
484.751	6707.88
484.855	6775.88
484.96	6735.88
485.064	6893.88
485.168	6918.88
485.273	6973.88
485.377	7062.88
485.481	7099.88
485.585	7061.88
485.69	7216.88
485.794	7153.88
485.898	7184.88
486.002	7199.88
486.107	7184.88
486.211	7104.88
486.315	7246.88
486.419	7291.88
486.524	7333.88
486.628	7186.88
486.732	7280.88
486.836	7120.88
486.94	7378.88
487.044	7309.88
487.148	7207.88
487.253	7205.88
487.357	7224.88
487.461	7448.88
487.565	7384.88
487.669	7292.88
487.773	7150.88
487.877	7314.88
487.981	7450.88
488.085	7394.88
488.189	7255.88
488.293	7481.88
488.397	7803.88
488.501	7338.88
488.605	7268.88
488.709	7356.88
488.813	7370.88
488.917	7316.88
489.021	7225.88
489.125	7703.88
489.229	7319.88
489.333	7549.88
489.437	7438.88
489.541	7290.88
489.645	7311.88
489.749	7461.88
489.853	7467.88
489.956	7444.88
490.06	7505.88
490.164	7520.88
490.268	7438.88
490.372	7477.88
490.476	7484.88
490.579	7465.88
490.683	8193.88
490.787	7575.88
490.891	7498.88
490.995	7569.88
491.098	7466.88
491.202	7495.88
491.306	7624.88
491.41	7451.88
491.513	7503.88
491.617	7388.88
491.721	7563.88
491.824	7576.88
491.928	7423.88
492.032	7755.88
492.136	7450.88
492.239	7359.88
492.343	7564.88
492.446	7991.88
492.55	7479.88
492.654	7408.88
492.757	7572.88
492.861	7506.88
492.965	7387.88
493.068	7487.88
493.172	7510.88
493.275	7479.88
493.379	7499.88
493.482	7665.88
493.586	7700.88
493.689	7658.88
493.793	7535.88
493.896	7641.88
494	7682.88
494.103	7673.88
494.207	7823.88
494.31	7855.88
494.414	7655.88
494.517	7582.88
494.621	7503.88
494.724	7472.88
494.828	7458.88
494.931	7420.88
495.034	7411.88
495.138	7702.88
495.241	7383.88
495.345	8224.88
495.448	7567.88
495.551	7409.88
495.655	7370.88
495.758	7324.88
495.861	7307.88
495.965	7387.88
496.068	7475.88
496.171	7412.88
496.274	7487.88
496.378	7443.88
496.481	7500.88
496.584	7535.88
496.687	7590.88
496.791	7533.88
496.894	7600.88
496.997	7658.88
497.1	7695.88
497.204	7736.88
497.307	7703.88
497.41	8037.88
497.513	8153.88
497.616	7898.88
497.719	8045.88
497.823	8195.88
497.926	8255.88
498.029	8295.88
498.132	8564.88
498.235	8798.88
498.338	8833.88
498.441	8972.88
498.544	9030.88
498.647	9311.88
498.75	9637.88
498.853	10065.88
498.956	10069.88
499.059	10630.88
499.163	10731.88
499.266	10992.88
499.369	11379.88
499.471	11742.88
499.574	12202.88
499.677	12615.88
499.78	13159.88
499.883	13704.88
499.986	14197.88
500.089	14559.88
500.192	14560.88
500.295	14560.88
500.398	14560.88
500.501	14560.88
500.604	14415.88
500.707	13863.88
500.809	13501.88
500.912	12994.88
501.015	12653.88
501.118	11895.88
501.221	11551.88
501.324	10970.88
501.426	10554.88
501.529	10148.88
501.632	9770.88
501.735	9552.88
501.837	9305.88
501.94	8999.88
502.043	8839.88
502.146	8719.88
502.248	8578.88
502.351	8239.88
502.454	8017.88
502.557	7994.88
502.659	7623.88
502.762	7517.88
502.865	7462.88
502.967	7208.88
503.07	7185.88
503.173	7116.88
503.275	6937.88
503.378	6902.88
503.48	6853.88
503.583	6924.88
503.686	6698.88
503.788	6921.88
503.891	6719.88
503.993	6829.88
504.096	6755.88
504.198	6764.88
504.301	6502.88
504.403	6646.88
504.506	6635.88
504.608	6520.88
504.711	6335.88
504.813	6425.88
504.916	6173.88
505.018	5981.88
505.121	5884.88
505.223	5959.88
505.326	5761.88
505.428	5815.88
505.531	5699.88
505.633	5599.88
505.735	5467.88
505.838	5470.88
505.94	5416.88
506.042	5325.88
506.145	5311.88
506.247	5385.88
506.35	5306.88
506.452	5310.88
506.554	5218.88
506.656	5143.88
506.759	5183.88
506.861	5211.88
506.963	5027.88
507.066	5088.88
507.168	5138.88
507.27	5072.88
507.372	4959.88
507.475	5001.88
507.577	5010.88
507.679	4985.88
507.781	4869.88
507.883	5003.88
507.986	4846.88
508.088	4920.88
508.19	4959.88
508.292	4845.88
508.394	4844.88
508.496	4814.88
508.598	4800.88
508.701	4712.88
508.803	4731.88
508.905	4712.88
509.007	4618.88
509.109	4817.88
509.211	4680.88
509.313	4683.88
509.415	4657.88
509.517	4719.88
509.619	4602.88
509.721	4663.88
509.823	4545.88
509.925	4790.88
510.027	4616.88
510.129	4650.88
510.231	4586.88
510.333	4590.88
510.435	4617.88
510.537	4691.88
510.639	4642.88
510.741	4625.88
510.843	4743.88
510.945	4550.88
511.047	4687.88
511.148	4657.88
511.25	4572.88
511.352	4620.88
511.454	4599.88
511.556	4691.88
511.658	4606.88
511.76	4698.88
511.861	4838.88
511.963	4508.88
512.065	4606.88
512.167	4623.88
512.268	4836.88
512.37	4695.88
512.472	4735.88
512.574	4698.88
512.676	4679.88
512.777	4608.88
512.879	4560.88
512.981	4537.88
513.082	4693.88
513.184	4643.88
513.286	5101.88
513.387	4831.88
513.489	4820.88
513.591	4681.88
513.692	4827.88
513.794	4807.88
513.896	4600.88
513.997	4654.88
514.099	4781.88
514.2	4816.88
514.302	4827.88
514.404	4777.88
514.505	4844.88
514.607	4926.88
514.708	4822.88
514.81	4956.88
514.911	4866.88
515.013	5062.88
515.114	5168.88
515.216	4953.88
515.317	4982.88
515.419	5052.88
515.52	5211.88
515.622	5056.88
515.723	5150.88
515.825	5319.88
515.926	5191.88
516.027	5278.88
516.129	5399.88
516.23	5485.88
516.332	5485.88
516.433	5602.88
516.534	5637.88
516.636	5689.88
516.737	5864.88
516.838	7033.88
516.94	6134.88
517.041	6161.88
517.142	6409.88
517.244	6369.88
517.345	6375.88
517.446	6489.88
517.547	6611.88
517.649	6499.88
517.75	6611.88
517.851	6428.88
517.952	6715.88
518.054	6387.88
518.155	6472.88
518.256	6101.88
518.357	6339.88
518.458	6077.88
518.56	6147.88
518.661	5955.88
518.762	5976.88
518.863	5967.88
518.964	5930.88
519.065	5661.88
519.166	5796.88
519.268	5642.88
519.369	5933.88
519.47	5577.88
519.571	5626.88
519.672	5586.88
519.773	5404.88
519.874	5580.88
519.975	5522.88
520.076	5454.88
520.177	5544.88
520.278	5426.88
520.379	5328.88
520.48	5281.88
520.581	5294.88
520.682	5280.88
520.783	5215.88
520.884	5357.88
520.985	5302.88
521.086	5300.88
521.187	5350.88
521.288	5203.88
521.389	5401.88
521.489	5250.88
521.59	5165.88
521.691	5293.88
521.792	5160.88
521.893	5268.88
521.994	5410.88
522.095	5264.88
522.195	5299.88
522.296	5361.88
522.397	5264.88
522.498	5107.88
522.599	5165.88
522.699	5194.88
522.8	5234.88
522.901	5345.88
523.002	5275.88
523.102	5335.88
523.203	5215.88
523.304	5451.88
523.405	5168.88
523.505	5176.88
523.606	5326.88
523.707	5203.88
523.807	5206.88
523.908	5318.88
524.009	5406.88
524.109	5178.88
524.21	5206.88
524.31	5359.88
524.411	5381.88
524.512	5418.88
524.612	5361.88
524.713	5355.88
524.813	5219.88
524.914	5499.88
525.014	10700.88
525.115	5621.88
525.216	5149.88
525.316	5324.88
525.417	5303.88
525.517	5242.88
525.618	5413.88
525.718	5209.88
525.819	5212.88
525.919	5331.88
526.019	5161.88
526.12	5220.88
526.22	5126.88
526.321	5179.88
526.421	5263.88
526.522	5110.88
526.622	5179.88
526.722	5093.88
526.823	5225.88
526.923	5285.88
527.023	5286.88
527.124	5158.88
527.224	5276.88
527.324	5031.88
527.425	5135.88
527.525	5119.88
527.625	5082.88
527.726	5136.88
527.826	5250.88
527.926	5235.88
528.026	5096.88
528.127	5103.88
528.227	5235.88
528.327	5238.88
528.427	5125.88
528.528	5294.88
528.628	5307.88
528.728	5154.88
528.828	5295.88
528.928	5258.88
529.029	5084.88
529.129	5144.88
529.229	5221.88
529.329	5067.88
529.429	5187.88
529.529	5262.88
529.629	5092.88
529.729	5055.88
529.829	5219.88
529.93	5077.88
530.03	5108.88
530.13	5044.88
530.23	5000.88
530.33	5064.88
530.43	5051.88
530.53	5060.88
530.63	4888.88
530.73	4907.88
530.83	4936.88
530.93	4863.88
531.03	4888.88
531.13	5038.88
531.23	4860.88
531.33	4969.88
531.429	5010.88
531.529	4939.88
531.629	4903.88
531.729	4862.88
531.829	4831.88
531.929	4821.88
532.029	4937.88
532.129	4842.88
532.229	4880.88
532.328	4922.88
532.428	4812.88
532.528	4648.88
532.628	4810.88
532.728	4838.88
532.827	4662.88
532.927	4797.88
533.027	4812.88
533.127	4966.88
533.227	4794.88
533.326	4812.88
533.426	4742.88
533.526	4860.88
533.625	4844.88
533.725	4990.88
533.825	4695.88
533.924	4480.88
534.024	4553.88
534.124	4542.88
534.223	4529.88
534.323	5010.88
534.423	4571.88
534.522	4591.88
534.622	4514.88
534.722	4476.88
534.821	4462.88
534.921	4427.88
535.02	4433.88
535.12	4494.88
535.219	4561.88
535.319	4583.88
535.419	4433.88
535.518	4366.88
535.618	4344.88
535.717	4375.88
535.817	4187.88
535.916	4161.88
536.016	4348.88
536.115	4172.88
536.215	4239.88
536.314	4227.88
536.413	3995.88
536.513	4122.88
536.612	4142.88
536.712	3992.88
536.811	4075.88
536.91	3975.88
537.01	3980.88
537.109	4108.88
537.209	4077.88
537.308	4053.88
537.407	4065.88
537.507	3935.88
537.606	4084.88
537.705	4072.88
537.805	4013.88
537.904	3906.88
538.003	3951.88
538.102	4058.88
538.202	4010.88
538.301	3984.88
538.4	3987.88
538.499	3918.88
538.599	3931.88
538.698	4093.88
538.797	3897.88
538.896	3965.88
538.995	3941.88
539.095	3904.88
539.194	4140.88
539.293	3772.88
539.392	3816.88
539.491	3851.88
539.59	3800.88
539.689	3928.88
539.789	3853.88
539.888	3616.88
539.987	3600.88
540.086	3719.88
540.185	3877.88
540.284	3769.88
540.383	3642.88
540.482	3799.88
540.581	3712.88
540.68	3695.88
540.779	3760.88
540.878	3719.88
540.977	3818.88
541.076	3723.88
541.175	3801.88
541.274	3978.88
541.373	3856.88
541.472	3729.88
541.571	3619.88
541.67	4934.88
541.769	3853.88
541.868	3694.88
541.966	3792.88
542.065	3756.88
542.164	3644.88
542.263	3598.88
542.362	3645.88
542.461	3697.88
542.56	3628.88
542.658	3663.88
542.757	3591.88
542.856	3450.88
542.955	3416.88
543.054	3511.88
543.152	3593.88
543.251	3488.88
543.35	3734.88
543.449	3541.88
543.547	3639.88
543.646	3546.88
543.745	3560.88
543.843	3577.88
543.942	3650.88
544.041	3638.88
544.14	3618.88
544.238	3618.88
544.337	3867.88
544.436	3636.88
544.534	3766.88
544.633	3732.88
544.731	3609.88
544.83	3692.88
544.929	3627.88
545.027	3627.88
545.126	3582.88
545.224	3719.88
545.323	3624.88
545.421	3603.88
545.52	3607.88
545.619	3733.88
545.717	3538.88
545.816	3724.88
545.914	3746.88
546.013	3860.88
546.111	3793.88
546.209	3620.88
546.308	3606.88
546.406	3538.88
546.505	3739.88
546.603	3711.88
546.702	3544.88
546.8	3575.88
546.899	3683.88
546.997	3609.88
547.095	3638.88
547.194	3622.88
547.292	3580.88
547.39	3724.88
547.489	3605.88
547.587	3882.88
547.685	3632.88
547.784	3800.88
547.882	3747.88
547.98	3581.88
548.079	3746.88
548.177	3662.88
548.275	3531.88
548.373	3749.88
548.472	3671.88
548.57	3562.88
548.668	3615.88
548.766	3532.88
548.864	3740.88
548.963	3591.88
549.061	3693.88
549.159	3620.88
549.257	3691.88
549.355	3652.88
549.454	3621.88
549.552	3704.88
549.65	3700.88
549.748	3669.88
549.846	3572.88
549.944	3570.88
550.042	3582.88
550.14	3620.88
550.238	3535.88
550.336	3593.88
550.434	3508.88
550.532	3494.88
550.631	3588.88
550.729	3666.88
550.827	3561.88
550.925	3526.88
551.023	3486.88
551.121	3475.88
551.218	3459.88
551.316	3476.88
551.414	3486.88
551.512	3417.88
551.61	3545.88
551.708	3603.88
551.806	3538.88
551.904	3563.88
552.002	3508.88
552.1	3486.88
552.198	3576.88
552.296	3829.88
552.393	3802.88
552.491	3910.88
552.589	3905.88
552.687	3903.88
552.785	3832.88
552.882	3939.88
552.98	4074.88
553.078	3980.88
553.176	3971.88
553.274	3815.88
553.371	3847.88
553.469	3840.88
553.567	3882.88
553.665	3732.88
553.762	4143.88
553.86	3938.88
553.958	3839.88
554.055	3688.88
554.153	3717.88
554.251	3669.88
554.348	3652.88
554.446	3571.88
554.544	3640.88
554.641	3835.88
554.739	3524.88
554.837	3598.88
554.934	3618.88
555.032	3471.88
555.129	3497.88
555.227	3728.88
555.324	8352.88
555.422	3790.88
555.519	3423.88
555.617	3381.88
555.715	3238.88
555.812	3777.88
555.91	3279.88
556.007	3402.88
556.105	3370.88
556.202	3366.88
556.299	3231.88
556.397	3357.88
556.494	3292.88
556.592	3223.88
556.689	3341.88
556.787	3248.88
556.884	3168.88
556.981	3274.88
557.079	3292.88
557.176	3303.88
557.273	3272.88
557.371	3446.88
557.468	3218.88
557.566	3266.88
557.663	3215.88
557.76	3218.88
557.857	3186.88
557.955	3280.88
558.052	3303.88
558.149	3300.88
558.247	3435.88
558.344	3256.88
558.441	3131.88
558.538	3275.88
558.636	3268.88
558.733	3276.88
558.83	3257.88
558.927	3309.88
559.024	3298.88
559.122	3269.88
559.219	3279.88
559.316	3391.88
559.413	3391.88
559.51	3194.88
559.607	3272.88
559.704	3301.88
559.801	3316.88
559.899	3338.88
559.996	3497.88
560.093	3351.88
560.19	3260.88
560.287	3327.88
560.384	3454.88
560.481	3346.88
560.578	3230.88
560.675	3243.88
560.772	3379.88
560.869	3353.88
560.966	3446.88
561.063	3286.88
561.16	3390.88
561.257	3348.88
561.354	3301.88
561.451	3354.88
561.548	3377.88
561.645	3497.88
561.742	3259.88
561.838	3214.88
561.935	3323.88
562.032	3288.88
562.129	3389.88
562.226	3266.88
562.323	3331.88
562.42	3475.88
562.516	3270.88
562.613	3343.88
562.71	3366.88
562.807	4142.88
562.904	3359.88
563	3430.88
563.097	3350.88
563.194	3430.88
563.291	3367.88
563.387	3460.88
563.484	3457.88
563.581	3468.88
563.678	3490.88
563.774	3845.88
563.871	3516.88
563.968	3532.88
564.064	3580.88
564.161	3516.88
564.258	3566.88
564.354	3628.88
564.451	3661.88
564.548	3644.88
564.644	3670.88
564.741	3718.88
564.837	3604.88
564.934	3777.88
565.031	3740.88
565.127	3854.88
565.224	4010.88
565.32	4056.88
565.417	3959.88
565.513	4092.88
565.61	4141.88
565.706	4262.88
565.803	4327.88
565.899	4327.88
565.996	4446.88
566.092	4515.88
566.189	4615.88
566.285	4684.88
566.382	4810.88
566.478	5028.88
566.574	5225.88
566.671	5049.88
566.767	5169.88
566.864	5154.88
566.96	5286.88
567.056	5198.88
567.153	5540.88
567.249	5389.88
567.345	5490.88
567.442	5657.88
567.538	5754.88
567.634	5719.88
567.731	5785.88
567.827	5760.88
567.923	5741.88
568.019	5489.88
568.116	5277.88
568.212	5097.88
568.308	4959.88
568.404	4874.88
568.501	4716.88
568.597	4571.88
568.693	4359.88
568.789	4999.88
568.885	4151.88
568.982	4225.88
569.078	3960.88
569.174	4015.88
569.27	3879.88
569.366	3829.88
569.462	3714.88
569.558	3632.88
569.655	3662.88
569.751	3478.88
569.847	3550.88
569.943	3577.88
570.039	3506.88
570.135	3944.88
570.231	3481.88
570.327	3655.88
570.423	3494.88
570.519	3509.88
570.615	3375.88
570.711	3539.88
570.807	3544.88
570.903	3453.88
570.999	3404.88
571.095	3384.88
571.191	3349.88
571.287	3336.88
571.383	3378.88
571.479	3316.88
571.574	3318.88
571.67	3174.88
571.766	3406.88
571.862	3182.88
571.958	3047.88
572.054	3155.88
572.15	3002.88
572.246	2872.88
572.341	3078.88
572.437	2951.88
572.533	2927.88
572.629	2969.88
572.725	2951.88
572.82	2829.88
572.916	2984.88
573.012	2898.88
573.108	2866.88
573.203	2823.88
573.299	2847.88
573.395	2783.88
573.49	2725.88
573.586	2715.88
573.682	2737.88
573.778	2876.88
573.873	2638.88
573.969	2696.88
574.065	2666.88
574.16	2727.88
574.256	2755.88
574.351	2723.88
574.447	2699.88
574.543	2688.88
574.638	2781.88
574.734	2782.88
574.829	2892.88
574.925	2695.88
575.02	2624.88
575.116	2607.88
575.212	2674.88
575.307	2726.88
575.403	2542.88
575.498	2608.88
575.594	2530.88
575.689	2542.88
575.784	2605.88
575.88	2543.88
575.975	2598.88
576.071	2538.88
576.166	2568.88
576.262	2551.88
576.357	2456.88
576.452	2665.88
576.548	2513.88
576.643	2458.88
576.739	2558.88
576.834	2412.88
576.929	2358.88
577.025	3129.88
577.12	2410.88
577.215	2357.88
577.311	2445.88
577.406	2474.88
577.501	2505.88
577.597	2274.88
577.692	2504.88
577.787	2443.88
577.882	2283.88
577.978	2395.88
578.073	2243.88
578.168	2143.88
578.263	2329.88
578.358	2271.88
578.454	2240.88
578.549	2168.88
578.644	2173.88
578.739	2198.88
578.834	2159.88
578.929	2150.88
579.025	2189.88
579.12	2205.88
579.215	2411.88
579.31	2298.88
579.405	2133.88
579.5	2191.88
579.595	2068.88
579.69	2066.88
579.785	2094.88
579.88	2119.88
579.975	2005.88
580.07	2077.88
580.165	2108.88
580.26	2176.88
580.355	2047.88
580.45	2057.88
580.545	1958.88
580.64	2011.88
580.735	2163.88
580.83	2050.88
580.925	1967.88
581.02	1995.88
581.115	1994.88
581.21	1970.88
581.305	2011.88
581.4	2002.88
581.495	1991.88
581.589	1944.88
581.684	2003.88
581.779	2075.88
581.874	1944.88
581.969	2090.88
582.064	1910.88
582.158	1901.88
582.253	1885.88
582.348	1901.88
582.443	1923.88
582.537	1963.88
582.632	2118.88
582.727	1900.88
582.822	1831.88
582.916	1902.88
583.011	1796.88
583.106	1901.88
583.201	1851.88
583.295	1876.88
583.39	1771.88
583.485	1830.88
583.579	3806.88
583.674	1997.88
583.769	2075.88
583.863	1818.88
583.958	1801.88
584.052	1682.88
584.147	1826.88
584.242	1669.88
584.336	1758.88
584.431	1917.88
584.525	1739.88
584.62	1913.88
584.714	1867.88
584.809	1830.88
584.903	1742.88
584.998	1780.88
585.092	1693.88
585.187	1735.88
585.281	1663.88
585.376	1816.88
585.47	1649.88
585.565	1722.88
585.659	1644.88
585.754	1712.88
585.848	1662.88
585.942	1711.88
586.037	1638.88
586.131	3895.88
586.226	1863.88
586.32	1783.88
586.414	1579.88
586.509	1840.88
586.603	1737.88
586.697	1666.88
586.792	1614.88
586.886	1624.88
586.98	1757.88
587.075	1635.88
587.169	1620.88
587.263	1842.88
587.357	1693.88
587.452	1633.88
587.546	1746.88
587.64	1575.88
587.734	1593.88
587.829	1740.88
587.923	1595.88
588.017	1606.88
588.111	1678.88
588.205	1672.88
588.3	1572.88
588.394	1583.88
588.488	1607.88
588.582	1717.88
588.676	1811.88
588.77	2312.88
588.864	3783.88
588.958	3948.88
589.052	3381.88
589.147	2492.88
589.241	2013.88
589.335	1985.88
589.429	2781.88
589.523	3285.88
589.617	3034.88
589.711	2299.88
589.805	1938.88
589.899	1807.88
589.993	1653.88
590.087	1535.88
590.181	1503.88
590.275	1627.88
590.369	1527.88
590.462	1536.88
590.556	1534.88
590.65	1525.88
590.744	1508.88
590.838	1506.88
590.932	1517.88
591.026	1670.88
591.12	1680.88
591.214	1595.88
591.307	1578.88
591.401	1542.88
591.495	1711.88
591.589	1541.88
591.683	1593.88
591.777	1698.88
591.87	1933.88
591.964	1649.88
592.058	1587.88
592.152	1666.88
592.245	1594.88
592.339	1716.88
592.433	1803.88
592.527	1704.88
592.62	1654.88
592.714	1767.88
592.808	1747.88
592.901	1825.88
592.995	1657.88
593.089	1939.88
593.182	1793.88
593.276	1743.88
593.37	1639.88
593.463	1694.88
593.557	1781.88
593.65	1727.88
593.744	1720.88
593.837	1840.88
593.931	1740.88
594.025	5331.88
594.118	2034.88
594.212	1745.88
594.305	1611.88
594.399	1745.88
594.492	2047.88
594.586	1613.88
594.679	1646.88
594.773	1580.88
594.866	1650.88
594.96	1595.88
595.053	1486.88
595.146	1561.88
595.24	1452.88
595.333	1406.88
595.427	1439.88
595.52	1384.88
595.614	1545.88
595.707	1466.88
595.8	1399.88
595.894	1357.88
595.987	1375.88
596.08	1317.88
596.174	1760.88
596.267	1435.88
596.36	1477.88
596.454	1534.88
596.547	1406.88
596.64	1357.88
596.733	1299.88
596.827	1417.88
596.92	1361.88
597.013	1229.88
597.106	1190.88
597.2	1204.88
597.293	1274.88
597.386	1431.88
597.479	1352.88
597.572	1321.88
597.666	1189.88
597.759	1221.88
597.852	1330.88
597.945	1175.88
598.038	1216.88
598.131	1227.88
598.224	1197.88
598.317	1181.88
598.411	1224.88
598.504	1169.88
598.597	1230.88
598.69	1171.88
598.783	1165.88
598.876	1143.88
598.969	1179.88
599.062	1190.88
599.155	1219.88
599.248	1145.88
599.341	1260.88
599.434	1189.88
599.527	1147.88
599.62	1180.88
599.713	1110.88
599.806	1219.88
599.899	1302.88
599.991	1146.88
600.084	1371.88
600.177	1114.88
600.27	1146.88
600.363	1306.88
600.456	1149.88
600.549	1263.88
600.642	1056.88
600.734	1120.88
600.827	1175.88
600.92	1257.88
601.013	1145.88
601.106	1240.88
601.199	1150.88
601.291	1070.88
601.384	1133.88
601.477	1366.88
601.57	1237.88
601.662	1140.88
601.755	1168.88
601.848	1148.88
601.94	1072.88
602.033	1298.88
602.126	1141.88
602.219	1059.88
602.311	1275.88
602.404	1144.88
602.497	1100.88
602.589	1093.88
602.682	1201.88
602.774	1151.88
602.867	1127.88
602.96	1174.88
603.052	1147.88
603.145	1064.88
603.237	1147.88
603.33	1151.88
603.422	1200.88
603.515	1065.88
603.608	1153.88
603.7	1138.88
603.793	1087.88
603.885	1158.88
603.978	1062.88
604.07	1079.88
604.163	1036.88
604.255	1099.88
604.347	1034.88
604.44	1031.88
604.532	1077.88
604.625	1032.88
604.717	1055.88
604.81	1168.88
604.902	1003.88
604.994	1022.88
605.087	1116.88
605.179	1044.88
605.271	1060.88
605.364	1090.88
605.456	1088.88
605.548	1102.88
605.641	1044.88
605.733	1029.88
605.825	1079.88
605.918	1053.88
606.01	1255.88
606.102	1510.88
606.194	1115.88
606.287	1190.88
606.379	1054.88
606.471	1045.88
606.563	1145.88
606.655	1106.88
606.748	1149.88
606.84	1085.88
606.932	1128.88
607.024	987.88
607.116	998.88
607.208	1070.88
607.301	1091.88
607.393	989.88
607.485	1082.88
607.577	1098.88
607.669	1100.88
607.761	1160.88
607.853	1301.88
607.945	1046.88
608.037	1015.88
608.129	1028.88
608.221	1016.88
608.313	1032.88
608.405	1074.88
608.497	1044.88
608.589	954.88
608.681	1090.88
608.773	1135.88
608.865	1053.88
608.957	1105.88
609.049	1015.88
609.141	1097.88
609.233	1030.88
609.325	943.88
609.417	959.88
609.509	1089.88
609.601	1171.88
609.693	1149.88
609.784	1031.88
609.876	1072.88
609.968	1047.88
610.06	3078.88
610.152	1278.88
610.244	1772.88
610.335	1061.88
610.427	1034.88
610.519	1034.88
610.611	1024.88
610.702	988.88
610.794	982.88
610.886	1104.88
610.978	1019.88
611.069	1462.88
611.161	930.88
611.253	1024.88
611.344	997.88
611.436	829.88
611.528	961.88
611.62	898.88
611.711	890.88
611.803	872.88
611.894	877.88
611.986	911.88
612.078	874.88
612.169	853.88
612.261	893.88
612.352	800.88
612.444	767.88
612.536	913.88
612.627	776.88
612.719	687.88
612.81	722.88
612.902	700.88
612.993	736.88
613.085	739.88
613.176	636.88
613.268	687.88
613.359	683.88
613.451	712.88
613.542	706.88
613.634	627.88
613.725	790.88
613.816	741.88
613.908	597.88
613.999	655.88
614.091	534.88
614.182	519.88
614.273	620.88
614.365	529.88
614.456	478.88
614.547	519.88
614.639	525.88
614.73	492.88
614.821	576.88
614.913	491.88
615.004	372.88
615.095	395.88
615.187	412.88
