Data from 14g_HRC06701__18__201.txt Node

Date: Thu Apr 18 01:58:12 CDT 2024
User: Estudiantes 2
Spectrometer: HR+C0670
Trigger mode: 4
Integration Time (sec): 1.000000E0
Scans to average: 1
Electric dark correction enabled: true
Nonlinearity correction enabled: false
Boxcar width: 0
XAxis mode: Wavelengths
Number of Pixels in Spectrum: 2048
>>>>>Begin Spectral Data<<<<<
407.81	-89.25
407.921	-89.25
408.032	-89.25
408.143	-153.25
408.254	-145.25
408.365	36.75
408.476	232.75
408.587	-14.25
408.699	2.75
408.81	-62.25
408.921	-51.25
409.032	-3.25
409.143	40.75
409.254	36.75
409.365	97.75
409.476	-21.25
409.587	3.75
409.698	88.75
409.809	85.75
409.92	-36.25
410.031	-27.25
410.142	49.75
410.253	10.75
410.364	37.75
410.475	118.75
410.585	545.75
410.696	599.75
410.807	637.75
410.918	580.75
411.029	657.75
411.14	703.75
411.251	613.75
411.362	681.75
411.472	660.75
411.583	686.75
411.694	651.75
411.805	648.75
411.916	663.75
412.026	685.75
412.137	680.75
412.248	681.75
412.359	589.75
412.47	560.75
412.58	626.75
412.691	634.75
412.802	610.75
412.912	594.75
413.023	646.75
413.134	593.75
413.245	700.75
413.355	699.75
413.466	589.75
413.577	627.75
413.687	693.75
413.798	571.75
413.909	661.75
414.019	648.75
414.13	629.75
414.24	594.75
414.351	702.75
414.462	762.75
414.572	654.75
414.683	633.75
414.793	654.75
414.904	973.75
415.014	615.75
415.125	659.75
415.235	639.75
415.346	713.75
415.456	761.75
415.567	625.75
415.677	617.75
415.788	687.75
415.898	613.75
416.009	622.75
416.119	665.75
416.23	631.75
416.34	582.75
416.45	690.75
416.561	1464.75
416.671	714.75
416.782	583.75
416.892	660.75
417.002	679.75
417.113	682.75
417.223	699.75
417.333	632.75
417.444	580.75
417.554	695.75
417.664	744.75
417.775	586.75
417.885	626.75
417.995	682.75
418.106	774.75
418.216	723.75
418.326	774.75
418.436	681.75
418.547	650.75
418.657	667.75
418.767	776.75
418.877	734.75
418.987	721.75
419.098	763.75
419.208	688.75
419.318	807.75
419.428	794.75
419.538	654.75
419.648	737.75
419.759	787.75
419.869	806.75
419.979	692.75
420.089	768.75
420.199	736.75
420.309	720.75
420.419	776.75
420.529	709.75
420.639	1174.75
420.749	821.75
420.859	850.75
420.969	732.75
421.079	962.75
421.189	854.75
421.299	811.75
421.409	716.75
421.519	862.75
421.629	891.75
421.739	709.75
421.849	715.75
421.959	728.75
422.069	783.75
422.179	756.75
422.289	779.75
422.399	814.75
422.509	891.75
422.619	3277.75
422.729	995.75
422.838	716.75
422.948	852.75
423.058	816.75
423.168	811.75
423.278	812.75
423.388	909.75
423.498	915.75
423.607	841.75
423.717	1123.75
423.827	1124.75
423.937	881.75
424.046	970.75
424.156	932.75
424.266	852.75
424.376	1103.75
424.485	1006.75
424.595	895.75
424.705	874.75
424.815	966.75
424.924	1292.75
425.034	993.75
425.144	945.75
425.253	930.75
425.363	932.75
425.473	1049.75
425.582	858.75
425.692	854.75
425.801	933.75
425.911	1054.75
426.021	943.75
426.13	1040.75
426.24	1154.75
426.349	1024.75
426.459	975.75
426.568	938.75
426.678	1071.75
426.787	1007.75
426.897	987.75
427.006	984.75
427.116	1032.75
427.225	1022.75
427.335	1072.75
427.444	1000.75
427.554	1022.75
427.663	1043.75
427.773	979.75
427.882	1033.75
427.992	1071.75
428.101	976.75
428.21	1004.75
428.32	1070.75
428.429	976.75
428.539	1246.75
428.648	1068.75
428.757	1109.75
428.867	1086.75
428.976	1232.75
429.085	1113.75
429.195	1054.75
429.304	1082.75
429.413	1179.75
429.523	1137.75
429.632	1102.75
429.741	1172.75
429.85	1073.75
429.96	1140.75
430.069	1108.75
430.178	1099.75
430.287	1281.75
430.397	1148.75
430.506	1144.75
430.615	1058.75
430.724	1210.75
430.833	1184.75
430.943	1178.75
431.052	1135.75
431.161	1201.75
431.27	1185.75
431.379	1152.75
431.488	1378.75
431.597	1264.75
431.706	1225.75
431.816	1195.75
431.925	1263.75
432.034	1203.75
432.143	1283.75
432.252	1213.75
432.361	1330.75
432.47	1208.75
432.579	1236.75
432.688	1176.75
432.797	1200.75
432.906	1200.75
433.015	1220.75
433.124	1522.75
433.233	1249.75
433.342	1273.75
433.451	1235.75
433.56	1198.75
433.669	1281.75
433.778	1143.75
433.886	1288.75
433.995	1302.75
434.104	1359.75
434.213	1261.75
434.322	1253.75
434.431	1391.75
434.54	1306.75
434.649	1460.75
434.757	1401.75
434.866	1313.75
434.975	1431.75
435.084	1442.75
435.193	1301.75
435.301	1488.75
435.41	1663.75
435.519	1687.75
435.628	1257.75
435.737	1203.75
435.845	1184.75
435.954	1107.75
436.063	1216.75
436.171	1213.75
436.28	1215.75
436.389	1281.75
436.498	1203.75
436.606	1161.75
436.715	1345.75
436.823	1184.75
436.932	1107.75
437.041	1129.75
437.149	1180.75
437.258	1078.75
437.367	1040.75
437.475	1085.75
437.584	1322.75
437.692	1091.75
437.801	2533.75
437.91	1298.75
438.018	1023.75
438.127	1026.75
438.235	1177.75
438.344	1027.75
438.452	1063.75
438.561	1110.75
438.669	1045.75
438.778	983.75
438.886	1094.75
438.995	1018.75
439.103	1058.75
439.212	1058.75
439.32	1051.75
439.428	995.75
439.537	1036.75
439.645	1154.75
439.754	1053.75
439.862	990.75
439.97	1136.75
440.079	1094.75
440.187	991.75
440.295	1233.75
440.404	1097.75
440.512	1091.75
440.62	1143.75
440.729	1163.75
440.837	1149.75
440.945	1694.75
441.054	1215.75
441.162	1122.75
441.27	1195.75
441.378	1158.75
441.487	1182.75
441.595	1550.75
441.703	1307.75
441.811	1192.75
441.92	1161.75
442.028	1080.75
442.136	1216.75
442.244	1209.75
442.352	1155.75
442.461	1131.75
442.569	1063.75
442.677	1102.75
442.785	1206.75
442.893	1061.75
443.001	1082.75
443.109	1079.75
443.217	1068.75
443.325	1043.75
443.434	1614.75
443.542	1454.75
443.65	1130.75
443.758	1274.75
443.866	1181.75
443.974	1422.75
444.082	1187.75
444.19	1238.75
444.298	1202.75
444.406	1324.75
444.514	1379.75
444.622	1360.75
444.73	1348.75
444.838	1337.75
444.946	1365.75
445.054	1239.75
445.161	1198.75
445.269	1234.75
445.377	1206.75
445.485	1228.75
445.593	1251.75
445.701	1343.75
445.809	1254.75
445.917	1172.75
446.025	1134.75
446.132	1210.75
446.24	1252.75
446.348	1203.75
446.456	1108.75
446.564	1092.75
446.671	1167.75
446.779	1110.75
446.887	1118.75
446.995	1169.75
447.102	1155.75
447.21	1153.75
447.318	1121.75
447.426	1146.75
447.533	1305.75
447.641	2281.75
447.749	1298.75
447.856	1118.75
447.964	1092.75
448.072	1306.75
448.179	1120.75
448.287	1203.75
448.395	1222.75
448.502	1137.75
448.61	1143.75
448.718	1198.75
448.825	1174.75
448.933	1120.75
449.04	1107.75
449.148	1205.75
449.256	1159.75
449.363	1190.75
449.471	1224.75
449.578	1228.75
449.686	1092.75
449.793	1352.75
449.901	1187.75
450.008	1208.75
450.116	1273.75
450.223	1194.75
450.331	1240.75
450.438	1238.75
450.546	1296.75
450.653	1337.75
450.76	1305.75
450.868	1314.75
450.975	1486.75
451.083	1298.75
451.19	1399.75
451.297	1332.75
451.405	1378.75
451.512	1313.75
451.619	1491.75
451.727	1428.75
451.834	1322.75
451.941	1380.75
452.049	1338.75
452.156	1347.75
452.263	1417.75
452.371	1366.75
452.478	1432.75
452.585	1482.75
452.692	1320.75
452.8	1352.75
452.907	1588.75
453.014	1448.75
453.121	1363.75
453.229	1408.75
453.336	1463.75
453.443	1472.75
453.55	1378.75
453.657	1482.75
453.765	1494.75
453.872	1485.75
453.979	1546.75
454.086	1464.75
454.193	1394.75
454.3	1460.75
454.407	1572.75
454.514	1581.75
454.621	1441.75
454.729	1442.75
454.836	1442.75
454.943	1485.75
455.05	1590.75
455.157	1616.75
455.264	1466.75
455.371	1582.75
455.478	1508.75
455.585	1696.75
455.692	1569.75
455.799	1690.75
455.906	1473.75
456.013	1507.75
456.12	1507.75
456.227	1523.75
456.334	1595.75
456.44	1700.75
456.547	1544.75
456.654	1475.75
456.761	1618.75
456.868	1648.75
456.975	1648.75
457.082	1586.75
457.189	1551.75
457.296	1541.75
457.402	1572.75
457.509	1572.75
457.616	1655.75
457.723	1804.75
457.83	1671.75
457.936	1620.75
458.043	1930.75
458.15	1703.75
458.257	1727.75
458.363	1754.75
458.47	1796.75
458.577	1772.75
458.684	1723.75
458.79	1860.75
458.897	1814.75
459.004	1910.75
459.11	1839.75
459.217	1906.75
459.324	2002.75
459.43	2001.75
459.537	2218.75
459.644	2063.75
459.75	1896.75
459.857	2355.75
459.964	2053.75
460.07	2113.75
460.177	2122.75
460.283	2225.75
460.39	2260.75
460.496	2049.75
460.603	2143.75
460.71	2127.75
460.816	2003.75
460.923	2170.75
461.029	2110.75
461.136	2152.75
461.242	2094.75
461.349	2071.75
461.455	2060.75
461.562	2394.75
461.668	2206.75
461.774	2102.75
461.881	2224.75
461.987	2210.75
462.094	2209.75
462.2	2271.75
462.307	2341.75
462.413	2288.75
462.519	2175.75
462.626	2484.75
462.732	2363.75
462.838	2426.75
462.945	2612.75
463.051	2580.75
463.157	2495.75
463.264	2480.75
463.37	2497.75
463.476	2354.75
463.583	2390.75
463.689	2386.75
463.795	2353.75
463.901	2369.75
464.008	2531.75
464.114	2306.75
464.22	2245.75
464.326	2340.75
464.433	2185.75
464.539	2241.75
464.645	2125.75
464.751	2391.75
464.857	2112.75
464.963	1975.75
465.07	2104.75
465.176	1934.75
465.282	1905.75
465.388	1970.75
465.494	1754.75
465.6	1770.75
465.706	1706.75
465.812	1625.75
465.918	1746.75
466.024	1634.75
466.131	1705.75
466.237	1615.75
466.343	1591.75
466.449	1619.75
466.555	1479.75
466.661	1476.75
466.767	1511.75
466.873	1538.75
466.979	1624.75
467.085	1487.75
467.191	1514.75
467.296	1420.75
467.402	1428.75
467.508	1536.75
467.614	1518.75
467.72	1471.75
467.826	1454.75
467.932	1379.75
468.038	1380.75
468.144	1438.75
468.25	1392.75
468.355	1324.75
468.461	1404.75
468.567	1332.75
468.673	1350.75
468.779	1406.75
468.885	1373.75
468.99	1257.75
469.096	1333.75
469.202	1507.75
469.308	1394.75
469.413	1346.75
469.519	1355.75
469.625	1358.75
469.731	1419.75
469.836	1422.75
469.942	1558.75
470.048	1425.75
470.153	1399.75
470.259	1401.75
470.365	1408.75
470.47	1415.75
470.576	1423.75
470.682	1365.75
470.787	1304.75
470.893	1314.75
470.999	1368.75
471.104	1350.75
471.21	1231.75
471.315	1187.75
471.421	1177.75
471.527	1462.75
471.632	1329.75
471.738	1293.75
471.843	1204.75
471.949	1275.75
472.054	1200.75
472.16	1201.75
472.265	1238.75
472.371	1128.75
472.476	1226.75
472.582	1320.75
472.687	1178.75
472.793	1098.75
472.898	1201.75
473.003	1128.75
473.109	1069.75
473.214	1111.75
473.32	1140.75
473.425	1154.75
473.53	1144.75
473.636	1168.75
473.741	1135.75
473.847	1095.75
473.952	1154.75
474.057	1199.75
474.163	1199.75
474.268	1146.75
474.373	1176.75
474.478	1083.75
474.584	1075.75
474.689	1181.75
474.794	1165.75
474.9	1355.75
475.005	1182.75
475.11	1244.75
475.215	1062.75
475.321	1198.75
475.426	1262.75
475.531	1208.75
475.636	1110.75
475.741	1155.75
475.846	1237.75
475.952	1314.75
476.057	1247.75
476.162	1262.75
476.267	1281.75
476.372	1429.75
476.477	1139.75
476.582	1234.75
476.687	1200.75
476.793	1142.75
476.898	1145.75
477.003	1209.75
477.108	1159.75
477.213	1115.75
477.318	1230.75
477.423	1281.75
477.528	1284.75
477.633	1280.75
477.738	1304.75
477.843	1199.75
477.948	1291.75
478.053	1271.75
478.158	1226.75
478.263	1269.75
478.368	1324.75
478.473	1419.75
478.578	1340.75
478.682	1261.75
478.787	1407.75
478.892	1334.75
478.997	1388.75
479.102	1384.75
479.207	1271.75
479.312	1402.75
479.417	1419.75
479.521	1274.75
479.626	1403.75
479.731	1367.75
479.836	1338.75
479.941	1473.75
480.045	1467.75
480.15	1462.75
480.255	1440.75
480.36	1346.75
480.465	1493.75
480.569	1557.75
480.674	1422.75
480.779	1387.75
480.883	1390.75
480.988	1387.75
481.093	1359.75
481.197	1414.75
481.302	1386.75
481.407	1401.75
481.511	2571.75
481.616	1524.75
481.721	1386.75
481.825	1528.75
481.93	1320.75
482.035	1371.75
482.139	1435.75
482.244	1384.75
482.348	1354.75
482.453	1391.75
482.557	1428.75
482.662	1398.75
482.767	1339.75
482.871	1398.75
482.976	1401.75
483.08	1400.75
483.185	1621.75
483.289	1353.75
483.394	1430.75
483.498	1456.75
483.603	1374.75
483.707	1464.75
483.811	1535.75
483.916	1586.75
484.02	1452.75
484.125	1620.75
484.229	1528.75
484.333	1652.75
484.438	1453.75
484.542	1571.75
484.647	1475.75
484.751	1497.75
484.855	1529.75
484.96	1473.75
485.064	1555.75
485.168	1601.75
485.273	1537.75
485.377	1552.75
485.481	1811.75
485.585	1690.75
485.69	1555.75
485.794	1678.75
485.898	1700.75
486.002	1613.75
486.107	1679.75
486.211	1647.75
486.315	1674.75
486.419	1696.75
486.524	1683.75
486.628	1643.75
486.732	1575.75
486.836	1691.75
486.94	1774.75
487.044	1609.75
487.148	1614.75
487.253	1626.75
487.357	1651.75
487.461	1823.75
487.565	1672.75
487.669	1636.75
487.773	1627.75
487.877	1761.75
487.981	1689.75
488.085	1654.75
488.189	1684.75
488.293	1795.75
488.397	2129.75
488.501	1679.75
488.605	1689.75
488.709	1699.75
488.813	1679.75
488.917	1670.75
489.021	1700.75
489.125	1871.75
489.229	1741.75
489.333	1835.75
489.437	1705.75
489.541	1717.75
489.645	1725.75
489.749	1729.75
489.853	1763.75
489.956	1677.75
490.06	1685.75
490.164	1763.75
490.268	1763.75
490.372	1715.75
490.476	1671.75
490.579	1708.75
490.683	2267.75
490.787	1825.75
490.891	1686.75
490.995	1737.75
491.098	1689.75
491.202	1719.75
491.306	1813.75
491.41	1714.75
491.513	1715.75
491.617	1721.75
491.721	1848.75
491.824	1922.75
491.928	1774.75
492.032	1950.75
492.136	1730.75
492.239	1686.75
492.343	1725.75
492.446	2041.75
492.55	1807.75
492.654	1764.75
492.757	1673.75
492.861	1721.75
492.965	1747.75
493.068	1759.75
493.172	1707.75
493.275	1777.75
493.379	1674.75
493.482	1859.75
493.586	1856.75
493.689	1973.75
493.793	1768.75
493.896	1826.75
494	1816.75
494.103	1827.75
494.207	2045.75
494.31	2093.75
494.414	1842.75
494.517	1762.75
494.621	1696.75
494.724	1679.75
494.828	1680.75
494.931	1716.75
495.034	1708.75
495.138	1846.75
495.241	1658.75
495.345	2507.75
495.448	1877.75
495.551	1689.75
495.655	1790.75
495.758	1674.75
495.861	1729.75
495.965	1761.75
496.068	1722.75
496.171	1711.75
496.274	1710.75
496.378	1743.75
496.481	1731.75
496.584	1715.75
496.687	1767.75
496.791	1766.75
496.894	1835.75
496.997	1795.75
497.1	1741.75
497.204	1776.75
497.307	1727.75
497.41	1916.75
497.513	2001.75
497.616	1815.75
497.719	1811.75
497.823	1815.75
497.926	1782.75
498.029	1922.75
498.132	1934.75
498.235	1969.75
498.338	2043.75
498.441	2129.75
498.544	2099.75
498.647	2135.75
498.75	2236.75
498.853	2327.75
498.956	2235.75
499.059	2511.75
499.163	2379.75
499.266	2535.75
499.369	2654.75
499.471	2696.75
499.574	2866.75
499.677	2933.75
499.78	2989.75
499.883	3116.75
499.986	3351.75
500.089	3358.75
500.192	3471.75
500.295	3535.75
500.398	3572.75
500.501	3531.75
500.604	3343.75
500.707	3180.75
500.809	3086.75
500.912	3075.75
501.015	2978.75
501.118	2705.75
501.221	2659.75
501.324	2559.75
501.426	2402.75
501.529	2315.75
501.632	2270.75
501.735	2052.75
501.837	2034.75
501.94	2022.75
502.043	2038.75
502.146	1996.75
502.248	1910.75
502.351	1848.75
502.454	1839.75
502.557	1747.75
502.659	1787.75
502.762	1631.75
502.865	1627.75
502.967	1621.75
503.07	1618.75
503.173	1630.75
503.275	1586.75
503.378	1579.75
503.48	1534.75
503.583	1603.75
503.686	1676.75
503.788	1783.75
503.891	1568.75
503.993	1804.75
504.096	1505.75
504.198	1542.75
504.301	1536.75
504.403	1529.75
504.506	1529.75
504.608	1465.75
504.711	1535.75
504.813	1513.75
504.916	1463.75
505.018	1439.75
505.121	1336.75
505.223	1415.75
505.326	1360.75
505.428	1406.75
505.531	1328.75
505.633	1386.75
505.735	1269.75
505.838	1261.75
505.94	1296.75
506.042	1211.75
506.145	1124.75
506.247	1264.75
506.35	1240.75
506.452	1281.75
506.554	1298.75
506.656	1329.75
506.759	1183.75
506.861	1234.75
506.963	1261.75
507.066	1216.75
507.168	1336.75
507.27	1166.75
507.372	1207.75
507.475	1128.75
507.577	1229.75
507.679	1221.75
507.781	1081.75
507.883	1140.75
507.986	1147.75
508.088	1118.75
508.19	1134.75
508.292	1197.75
508.394	1132.75
508.496	1081.75
508.598	1120.75
508.701	1147.75
508.803	1121.75
508.905	1024.75
509.007	1145.75
509.109	1184.75
509.211	1174.75
509.313	1130.75
509.415	1062.75
509.517	1146.75
509.619	1068.75
509.721	1145.75
509.823	1035.75
509.925	1230.75
510.027	1113.75
510.129	1086.75
510.231	1115.75
510.333	1160.75
510.435	1080.75
510.537	1138.75
510.639	1228.75
510.741	1054.75
510.843	1168.75
510.945	1102.75
511.047	1113.75
511.148	1096.75
511.25	1127.75
511.352	1160.75
511.454	1019.75
511.556	1159.75
511.658	1102.75
511.76	1137.75
511.861	1211.75
511.963	1136.75
512.065	1106.75
512.167	1071.75
512.268	1307.75
512.37	1147.75
512.472	1092.75
512.574	1139.75
512.676	1176.75
512.777	1055.75
512.879	1063.75
512.981	1112.75
513.082	1094.75
513.184	1079.75
513.286	1543.75
513.387	1193.75
513.489	1214.75
513.591	1215.75
513.692	1207.75
513.794	1173.75
513.896	1027.75
513.997	1098.75
514.099	1074.75
514.2	1167.75
514.302	1245.75
514.404	1143.75
514.505	1121.75
514.607	1239.75
514.708	1135.75
514.81	1165.75
514.911	1267.75
515.013	1191.75
515.114	1210.75
515.216	1188.75
515.317	1177.75
515.419	1139.75
515.52	1215.75
515.622	1233.75
515.723	1228.75
515.825	1330.75
515.926	1300.75
516.027	1172.75
516.129	1207.75
516.23	1347.75
516.332	1303.75
516.433	1223.75
516.534	1354.75
516.636	1319.75
516.737	1306.75
516.838	2296.75
516.94	1546.75
517.041	1402.75
517.142	1520.75
517.244	1592.75
517.345	1475.75
517.446	1531.75
517.547	1570.75
517.649	1519.75
517.75	1500.75
517.851	1534.75
517.952	1767.75
518.054	1511.75
518.155	1676.75
518.256	1573.75
518.357	1575.75
518.458	1402.75
518.56	1445.75
518.661	1395.75
518.762	1403.75
518.863	1550.75
518.964	1479.75
519.065	1328.75
519.166	1336.75
519.268	1354.75
519.369	1584.75
519.47	1369.75
519.571	1385.75
519.672	1236.75
519.773	1233.75
519.874	1384.75
519.975	1337.75
520.076	1299.75
520.177	1443.75
520.278	1313.75
520.379	1285.75
520.48	1216.75
520.581	1250.75
520.682	1240.75
520.783	1256.75
520.884	1378.75
520.985	1270.75
521.086	1287.75
521.187	1352.75
521.288	1220.75
521.389	1285.75
521.489	1298.75
521.59	1167.75
521.691	1190.75
521.792	1209.75
521.893	1355.75
521.994	1378.75
522.095	1304.75
522.195	1363.75
522.296	1329.75
522.397	1368.75
522.498	1345.75
522.599	1220.75
522.699	1298.75
522.8	1340.75
522.901	1375.75
523.002	1279.75
523.102	1473.75
523.203	1308.75
523.304	1368.75
523.405	1230.75
523.505	1312.75
523.606	1311.75
523.707	1342.75
523.807	1338.75
523.908	1258.75
524.009	1355.75
524.109	1357.75
524.21	1225.75
524.31	1304.75
524.411	1377.75
524.512	1367.75
524.612	1276.75
524.713	1502.75
524.813	1327.75
524.914	1427.75
525.014	6644.75
525.115	1777.75
525.216	1264.75
525.316	1302.75
525.417	1360.75
525.517	1254.75
525.618	1279.75
525.718	1301.75
525.819	1227.75
525.919	1297.75
526.019	1237.75
526.12	1353.75
526.22	1206.75
526.321	1246.75
526.421	1292.75
526.522	1213.75
526.622	1221.75
526.722	1266.75
526.823	1289.75
526.923	1255.75
527.023	1408.75
527.124	1246.75
527.224	1286.75
527.324	1199.75
527.425	1239.75
527.525	1192.75
527.625	1296.75
527.726	1324.75
527.826	1288.75
527.926	1254.75
528.026	1315.75
528.127	1222.75
528.227	1221.75
528.327	1395.75
528.427	1306.75
528.528	1299.75
528.628	1314.75
528.728	1318.75
528.828	1352.75
528.928	1364.75
529.029	1281.75
529.129	1263.75
529.229	1268.75
529.329	1329.75
529.429	1391.75
529.529	1351.75
529.629	1399.75
529.729	1277.75
529.829	1387.75
529.93	1267.75
530.03	1315.75
530.13	1262.75
530.23	1275.75
530.33	1376.75
530.43	1190.75
530.53	1254.75
530.63	1273.75
530.73	1206.75
530.83	1149.75
530.93	1170.75
531.03	1162.75
531.13	1240.75
531.23	1185.75
531.33	1210.75
531.429	1246.75
531.529	1252.75
531.629	1282.75
531.729	1115.75
531.829	1105.75
531.929	1200.75
532.029	1222.75
532.129	1179.75
532.229	1270.75
532.328	1158.75
532.428	1149.75
532.528	1138.75
532.628	1188.75
532.728	1170.75
532.827	1070.75
532.927	1216.75
533.027	1157.75
533.127	1287.75
533.227	1314.75
533.326	1216.75
533.426	1132.75
533.526	1329.75
533.625	1303.75
533.725	1385.75
533.825	1257.75
533.924	1111.75
534.024	1047.75
534.124	1096.75
534.223	1213.75
534.323	1468.75
534.423	1155.75
534.522	1171.75
534.622	1019.75
534.722	1062.75
534.821	1193.75
534.921	1086.75
535.02	1062.75
535.12	1141.75
535.219	1207.75
535.319	1147.75
535.419	1137.75
535.518	1115.75
535.618	1073.75
535.717	1161.75
535.817	1082.75
535.916	961.75
536.016	1084.75
536.115	1003.75
536.215	1042.75
536.314	986.75
536.413	959.75
536.513	996.75
536.612	993.75
536.712	985.75
536.811	1038.75
536.91	897.75
537.01	988.75
537.109	1065.75
537.209	951.75
537.308	936.75
537.407	1045.75
537.507	1000.75
537.606	984.75
537.705	1070.75
537.805	980.75
537.904	917.75
538.003	972.75
538.102	1119.75
538.202	949.75
538.301	1022.75
538.4	1065.75
538.499	1006.75
538.599	991.75
538.698	1252.75
538.797	976.75
538.896	1035.75
538.995	1040.75
539.095	978.75
539.194	1161.75
539.293	956.75
539.392	1049.75
539.491	987.75
539.59	926.75
539.689	1155.75
539.789	1035.75
539.888	860.75
539.987	879.75
540.086	897.75
540.185	934.75
540.284	978.75
540.383	938.75
540.482	868.75
540.581	955.75
540.68	961.75
540.779	944.75
540.878	997.75
540.977	1053.75
541.076	955.75
541.175	1007.75
541.274	1222.75
541.373	1044.75
541.472	983.75
541.571	942.75
541.67	2167.75
541.769	1088.75
541.868	963.75
541.966	1027.75
542.065	946.75
542.164	962.75
542.263	952.75
542.362	942.75
542.461	1022.75
542.56	1043.75
542.658	1000.75
542.757	883.75
542.856	899.75
542.955	856.75
543.054	814.75
543.152	1007.75
543.251	947.75
543.35	1033.75
543.449	888.75
543.547	991.75
543.646	868.75
543.745	942.75
543.843	1030.75
543.942	939.75
544.041	926.75
544.14	1047.75
544.238	915.75
544.337	1108.75
544.436	947.75
544.534	1090.75
544.633	962.75
544.731	979.75
544.83	1039.75
544.929	993.75
545.027	987.75
545.126	966.75
545.224	1002.75
545.323	928.75
545.421	967.75
545.52	963.75
545.619	974.75
545.717	904.75
545.816	1063.75
545.914	1053.75
546.013	1198.75
546.111	1154.75
546.209	911.75
546.308	903.75
546.406	985.75
546.505	1103.75
546.603	987.75
546.702	945.75
546.8	896.75
546.899	927.75
546.997	938.75
547.095	977.75
547.194	970.75
547.292	986.75
547.39	1093.75
547.489	922.75
547.587	1246.75
547.685	994.75
547.784	1169.75
547.882	979.75
547.98	952.75
548.079	1000.75
548.177	939.75
548.275	908.75
548.373	1095.75
548.472	940.75
548.57	1005.75
548.668	1045.75
548.766	907.75
548.864	1076.75
548.963	1006.75
549.061	1070.75
549.159	904.75
549.257	1011.75
549.355	921.75
549.454	917.75
549.552	1035.75
549.65	956.75
549.748	887.75
549.846	915.75
549.944	974.75
550.042	878.75
550.14	939.75
550.238	1039.75
550.336	895.75
550.434	856.75
550.532	899.75
550.631	1047.75
550.729	943.75
550.827	982.75
550.925	945.75
551.023	952.75
551.121	892.75
551.218	931.75
551.316	836.75
551.414	869.75
551.512	888.75
551.61	887.75
551.708	960.75
551.806	978.75
551.904	873.75
552.002	871.75
552.1	971.75
552.198	935.75
552.296	1085.75
552.393	1103.75
552.491	1143.75
552.589	1034.75
552.687	1076.75
552.785	1082.75
552.882	1095.75
552.98	1250.75
553.078	1171.75
553.176	1072.75
553.274	914.75
553.371	1008.75
553.469	1019.75
553.567	967.75
553.665	978.75
553.762	1407.75
553.86	1118.75
553.958	1039.75
554.055	1044.75
554.153	1018.75
554.251	1016.75
554.348	1025.75
554.446	927.75
554.544	913.75
554.641	1221.75
554.739	920.75
554.837	961.75
554.934	946.75
555.032	963.75
555.129	922.75
555.227	1151.75
555.324	3948.75
555.422	1171.75
555.519	916.75
555.617	963.75
555.715	806.75
555.812	1294.75
555.91	915.75
556.007	926.75
556.105	827.75
556.202	906.75
556.299	880.75
556.397	851.75
556.494	811.75
556.592	871.75
556.689	888.75
556.787	842.75
556.884	848.75
556.981	850.75
557.079	814.75
557.176	846.75
557.273	911.75
557.371	919.75
557.468	857.75
557.566	928.75
557.663	833.75
557.76	850.75
557.857	903.75
557.955	921.75
558.052	954.75
558.149	1029.75
558.247	991.75
558.344	863.75
558.441	825.75
558.538	847.75
558.636	877.75
558.733	906.75
558.83	888.75
558.927	865.75
559.024	874.75
559.122	869.75
559.219	861.75
559.316	951.75
559.413	1003.75
559.51	823.75
559.607	851.75
559.704	938.75
559.801	936.75
559.899	842.75
559.996	1112.75
560.093	979.75
560.19	827.75
560.287	967.75
560.384	1035.75
560.481	844.75
560.578	847.75
560.675	889.75
560.772	941.75
560.869	920.75
560.966	1058.75
561.063	873.75
561.16	960.75
561.257	929.75
561.354	918.75
561.451	851.75
561.548	914.75
561.645	1095.75
561.742	873.75
561.838	848.75
561.935	881.75
562.032	814.75
562.129	835.75
562.226	900.75
562.323	836.75
562.42	855.75
562.516	859.75
562.613	847.75
562.71	857.75
562.807	1542.75
562.904	942.75
563	850.75
563.097	851.75
563.194	916.75
563.291	828.75
563.387	863.75
563.484	965.75
563.581	879.75
563.678	829.75
563.774	1240.75
563.871	930.75
563.968	857.75
564.064	977.75
564.161	944.75
564.258	849.75
564.354	964.75
564.451	995.75
564.548	880.75
564.644	929.75
564.741	966.75
564.837	914.75
564.934	889.75
565.031	948.75
565.127	922.75
565.224	982.75
565.32	1125.75
565.417	987.75
565.513	1056.75
565.61	1022.75
565.706	1106.75
565.803	1089.75
565.899	999.75
565.996	1149.75
566.092	1109.75
566.189	1065.75
566.285	1078.75
566.382	1185.75
566.478	1190.75
566.574	1278.75
566.671	1222.75
566.767	1163.75
566.864	1180.75
566.96	1253.75
567.056	1200.75
567.153	1451.75
567.249	1400.75
567.345	1344.75
567.442	1383.75
567.538	1351.75
567.634	1391.75
567.731	1317.75
567.827	1357.75
567.923	1447.75
568.019	1228.75
568.116	1177.75
568.212	1162.75
568.308	1161.75
568.404	1141.75
568.501	1153.75
568.597	1135.75
568.693	1049.75
568.789	1690.75
568.885	1035.75
568.982	1022.75
569.078	988.75
569.174	1060.75
569.27	842.75
569.366	949.75
569.462	966.75
569.558	863.75
569.655	848.75
569.751	889.75
569.847	852.75
569.943	816.75
570.039	784.75
570.135	1217.75
570.231	851.75
570.327	947.75
570.423	934.75
570.519	857.75
570.615	841.75
570.711	950.75
570.807	909.75
570.903	825.75
570.999	886.75
571.095	906.75
571.191	830.75
571.287	911.75
571.383	911.75
571.479	814.75
571.574	914.75
571.67	856.75
571.766	989.75
571.862	806.75
571.958	787.75
572.054	829.75
572.15	718.75
572.246	756.75
572.341	822.75
572.437	789.75
572.533	807.75
572.629	794.75
572.725	740.75
572.82	754.75
572.916	894.75
573.012	710.75
573.108	777.75
573.203	764.75
573.299	661.75
573.395	698.75
573.49	645.75
573.586	631.75
573.682	662.75
573.778	811.75
573.873	674.75
573.969	641.75
574.065	681.75
574.16	706.75
574.256	673.75
574.351	709.75
574.447	692.75
574.543	646.75
574.638	761.75
574.734	737.75
574.829	903.75
574.925	669.75
575.02	707.75
575.116	651.75
575.212	670.75
575.307	757.75
575.403	698.75
575.498	706.75
575.594	661.75
575.689	740.75
575.784	683.75
575.88	675.75
575.975	791.75
576.071	624.75
576.166	575.75
576.262	720.75
576.357	644.75
576.452	753.75
576.548	660.75
576.643	661.75
576.739	677.75
576.834	656.75
576.929	683.75
577.025	1268.75
577.12	605.75
577.215	613.75
577.311	648.75
577.406	715.75
577.501	811.75
577.597	576.75
577.692	689.75
577.787	672.75
577.882	604.75
577.978	617.75
578.073	574.75
578.168	627.75
578.263	558.75
578.358	580.75
578.454	582.75
578.549	542.75
578.644	532.75
578.739	639.75
578.834	551.75
578.929	500.75
579.025	551.75
579.12	648.75
579.215	798.75
579.31	721.75
579.405	556.75
579.5	642.75
579.595	522.75
579.69	537.75
579.785	507.75
579.88	518.75
579.975	588.75
580.07	514.75
580.165	550.75
580.26	666.75
580.355	590.75
580.45	511.75
580.545	515.75
580.64	585.75
580.735	628.75
580.83	571.75
580.925	545.75
581.02	457.75
581.115	492.75
581.21	499.75
581.305	572.75
581.4	542.75
581.495	531.75
581.589	563.75
581.684	421.75
581.779	570.75
581.874	582.75
581.969	652.75
582.064	486.75
582.158	570.75
582.253	473.75
582.348	504.75
582.443	547.75
582.537	507.75
582.632	729.75
582.727	522.75
582.822	534.75
582.916	473.75
583.011	473.75
583.106	558.75
583.201	420.75
583.295	511.75
583.39	472.75
583.485	451.75
583.579	2598.75
583.674	734.75
583.769	735.75
583.863	518.75
583.958	484.75
584.052	459.75
584.147	451.75
584.242	418.75
584.336	479.75
584.431	640.75
584.525	438.75
584.62	650.75
584.714	500.75
584.809	501.75
584.903	559.75
584.998	510.75
585.092	432.75
585.187	500.75
585.281	417.75
585.376	452.75
585.47	511.75
585.565	482.75
585.659	371.75
585.754	431.75
585.848	526.75
585.942	408.75
586.037	441.75
586.131	2713.75
586.226	623.75
586.32	512.75
586.414	388.75
586.509	543.75
586.603	508.75
586.697	391.75
586.792	419.75
586.886	356.75
586.98	536.75
587.075	527.75
587.169	434.75
587.263	663.75
587.357	580.75
587.452	411.75
587.546	502.75
587.64	393.75
587.734	485.75
587.829	458.75
587.923	393.75
588.017	502.75
588.111	439.75
588.205	457.75
588.3	478.75
588.394	363.75
588.488	401.75
588.582	499.75
588.676	490.75
588.77	563.75
588.864	986.75
588.958	996.75
589.052	754.75
589.147	761.75
589.241	620.75
589.335	540.75
589.429	771.75
589.523	856.75
589.617	769.75
589.711	650.75
589.805	607.75
589.899	551.75
589.993	444.75
590.087	405.75
590.181	378.75
590.275	454.75
590.369	449.75
590.462	397.75
590.556	365.75
590.65	394.75
590.744	424.75
590.838	358.75
590.932	402.75
591.026	479.75
591.12	575.75
591.214	420.75
591.307	451.75
591.401	426.75
591.495	449.75
591.589	375.75
591.683	452.75
591.777	456.75
591.87	761.75
591.964	501.75
592.058	415.75
592.152	476.75
592.245	439.75
592.339	491.75
592.433	524.75
592.527	512.75
592.62	416.75
592.714	401.75
592.808	534.75
592.901	542.75
592.995	406.75
593.089	657.75
593.182	588.75
593.276	421.75
593.37	420.75
593.463	444.75
593.557	432.75
593.65	420.75
593.744	474.75
593.837	529.75
593.931	436.75
594.025	3982.75
594.118	822.75
594.212	442.75
594.305	395.75
594.399	506.75
594.492	712.75
594.586	438.75
594.679	432.75
594.773	362.75
594.866	405.75
594.96	487.75
595.053	379.75
595.146	404.75
595.24	396.75
595.333	355.75
595.427	318.75
595.52	321.75
595.614	533.75
595.707	377.75
595.8	334.75
595.894	387.75
595.987	291.75
596.08	324.75
596.174	769.75
596.267	459.75
596.36	456.75
596.454	536.75
596.547	444.75
596.64	322.75
596.733	269.75
596.827	449.75
596.92	324.75
597.013	279.75
597.106	289.75
597.2	310.75
597.293	286.75
597.386	548.75
597.479	445.75
597.572	329.75
597.666	347.75
597.759	341.75
597.852	420.75
597.945	305.75
598.038	385.75
598.131	306.75
598.224	326.75
598.317	442.75
598.411	320.75
598.504	271.75
598.597	379.75
598.69	305.75
598.783	255.75
598.876	344.75
598.969	308.75
599.062	235.75
599.155	362.75
599.248	331.75
599.341	291.75
599.434	298.75
599.527	372.75
599.62	306.75
599.713	262.75
599.806	385.75
599.899	479.75
599.991	293.75
600.084	507.75
600.177	271.75
600.27	254.75
600.363	471.75
600.456	341.75
600.549	328.75
600.642	252.75
600.734	306.75
600.827	272.75
600.92	378.75
601.013	311.75
601.106	325.75
601.199	254.75
601.291	307.75
601.384	326.75
601.477	482.75
601.57	432.75
601.662	290.75
601.755	299.75
601.848	339.75
601.94	341.75
602.033	393.75
602.126	314.75
602.219	330.75
602.311	398.75
602.404	281.75
602.497	304.75
602.589	300.75
602.682	319.75
602.774	330.75
602.867	353.75
602.96	275.75
603.052	321.75
603.145	331.75
603.237	284.75
603.33	270.75
603.422	455.75
603.515	245.75
603.608	312.75
603.7	323.75
603.793	318.75
603.885	317.75
603.978	276.75
604.07	325.75
604.163	265.75
604.255	266.75
604.347	277.75
604.44	190.75
604.532	296.75
604.625	325.75
604.717	293.75
604.81	332.75
604.902	286.75
604.994	216.75
605.087	236.75
605.179	285.75
605.271	331.75
605.364	235.75
605.456	329.75
605.548	294.75
605.641	249.75
605.733	254.75
605.825	330.75
605.918	207.75
606.01	439.75
606.102	752.75
606.194	338.75
606.287	448.75
606.379	273.75
606.471	343.75
606.563	357.75
606.655	369.75
606.748	388.75
606.84	239.75
606.932	361.75
607.024	315.75
607.116	232.75
607.208	206.75
607.301	359.75
607.393	267.75
607.485	270.75
607.577	334.75
607.669	430.75
607.761	294.75
607.853	537.75
607.945	345.75
608.037	190.75
608.129	297.75
608.221	328.75
608.313	217.75
608.405	341.75
608.497	301.75
608.589	223.75
608.681	236.75
608.773	327.75
608.865	352.75
608.957	323.75
609.049	254.75
609.141	427.75
609.233	251.75
609.325	239.75
609.417	270.75
609.509	344.75
609.601	402.75
609.693	400.75
609.784	229.75
609.876	250.75
609.968	317.75
610.06	2394.75
610.152	504.75
610.244	1105.75
610.335	399.75
610.427	267.75
610.519	276.75
610.611	362.75
610.702	250.75
610.794	295.75
610.886	394.75
610.978	292.75
611.069	739.75
611.161	323.75
611.253	392.75
611.344	251.75
611.436	237.75
611.528	385.75
611.62	225.75
611.711	246.75
611.803	269.75
611.894	226.75
611.986	239.75
612.078	278.75
612.169	276.75
612.261	217.75
612.352	201.75
612.444	221.75
612.536	312.75
612.627	223.75
612.719	208.75
612.81	148.75
612.902	144.75
612.993	251.75
613.085	162.75
613.176	133.75
613.268	261.75
613.359	168.75
613.451	141.75
613.542	197.75
613.634	167.75
613.725	233.75
613.816	256.75
613.908	211.75
613.999	138.75
614.091	88.75
614.182	119.75
614.273	187.75
614.365	104.75
614.456	101.75
614.547	118.75
614.639	69.75
614.73	130.75
614.821	209.75
614.913	79.75
615.004	51.75
615.095	87.75
615.187	53.75
