Data from 14g_HRC06701__47__230.txt Node

Date: Thu Apr 18 01:58:41 CDT 2024
User: Estudiantes 2
Spectrometer: HR+C0670
Trigger mode: 4
Integration Time (sec): 1.000000E0
Scans to average: 1
Electric dark correction enabled: true
Nonlinearity correction enabled: false
Boxcar width: 0
XAxis mode: Wavelengths
Number of Pixels in Spectrum: 2048
>>>>>Begin Spectral Data<<<<<
407.81	-147.12
407.921	-147.12
408.032	-147.12
408.143	-125.12
408.254	-123.12
408.365	45.88
408.476	228.88
408.587	14.88
408.699	4.88
408.81	-25.12
408.921	-23.12
409.032	-41.12
409.143	12.88
409.254	65.88
409.365	62.88
409.476	-40.12
409.587	28.88
409.698	59.88
409.809	56.88
409.92	-10.12
410.031	24.88
410.142	40.88
410.253	8.88
410.364	44.88
410.475	1045.88
410.585	5171.88
410.696	5615.88
410.807	5501.88
410.918	5452.88
411.029	5689.88
411.14	5634.88
411.251	5698.88
411.362	5679.88
411.472	5756.88
411.583	5576.88
411.694	5889.88
411.805	5760.88
411.916	5822.88
412.026	5817.88
412.137	5778.88
412.248	5714.88
412.359	5792.88
412.47	5680.88
412.58	5581.88
412.691	5698.88
412.802	5603.88
412.912	5608.88
413.023	5584.88
413.134	5622.88
413.245	5690.88
413.355	5744.88
413.466	5603.88
413.577	5582.88
413.687	5694.88
413.798	5453.88
413.909	5698.88
414.019	5653.88
414.13	5594.88
414.24	5556.88
414.351	5727.88
414.462	5851.88
414.572	5681.88
414.683	5716.88
414.793	5620.88
414.904	5955.88
415.014	5702.88
415.125	5601.88
415.235	5693.88
415.346	5809.88
415.456	5787.88
415.567	5701.88
415.677	5574.88
415.788	5740.88
415.898	5542.88
416.009	5529.88
416.119	5723.88
416.23	5597.88
416.34	5504.88
416.45	5658.88
416.561	6596.88
416.671	5760.88
416.782	5498.88
416.892	5651.88
417.002	5753.88
417.113	5838.88
417.223	5729.88
417.333	5687.88
417.444	5696.88
417.554	5869.88
417.664	5890.88
417.775	5749.88
417.885	5974.88
417.995	5915.88
418.106	6192.88
418.216	5991.88
418.326	6095.88
418.436	6293.88
418.547	6114.88
418.657	6230.88
418.767	6387.88
418.877	6269.88
418.987	6332.88
419.098	6321.88
419.208	6461.88
419.318	6528.88
419.428	6423.88
419.538	6252.88
419.648	6457.88
419.759	6463.88
419.869	6388.88
419.979	6395.88
420.089	6496.88
420.199	6470.88
420.309	6363.88
420.419	6538.88
420.529	6477.88
420.639	7010.88
420.749	6550.88
420.859	6461.88
420.969	6697.88
421.079	6846.88
421.189	6542.88
421.299	6615.88
421.409	6623.88
421.519	6840.88
421.629	6860.88
421.739	6686.88
421.849	6889.88
421.959	6799.88
422.069	6803.88
422.179	6818.88
422.289	6889.88
422.399	6967.88
422.509	7227.88
422.619	10466.88
422.729	7354.88
422.838	7299.88
422.948	7368.88
423.058	7308.88
423.168	7294.88
423.278	7502.88
423.388	7493.88
423.498	7583.88
423.607	7655.88
423.717	7861.88
423.827	7941.88
423.937	7851.88
424.046	7801.88
424.156	7918.88
424.266	7764.88
424.376	8239.88
424.485	8033.88
424.595	8044.88
424.705	8182.88
424.815	8170.88
424.924	8533.88
425.034	8212.88
425.144	8189.88
425.253	8085.88
425.363	8461.88
425.473	8364.88
425.582	8128.88
425.692	8349.88
425.801	8351.88
425.911	8523.88
426.021	8441.88
426.13	8741.88
426.24	8640.88
426.349	8723.88
426.459	8773.88
426.568	8643.88
426.678	8779.88
426.787	8808.88
426.897	8660.88
427.006	8883.88
427.116	8977.88
427.225	8947.88
427.335	9024.88
427.444	8972.88
427.554	9075.88
427.663	9186.88
427.773	9068.88
427.882	9453.88
427.992	9240.88
428.101	9302.88
428.21	9205.88
428.32	9499.88
428.429	9320.88
428.539	9834.88
428.648	9622.88
428.757	9503.88
428.867	9640.88
428.976	9919.88
429.085	9669.88
429.195	9672.88
429.304	9840.88
429.413	9860.88
429.523	10017.88
429.632	10045.88
429.741	9737.88
429.85	9837.88
429.96	10132.88
430.069	10036.88
430.178	10127.88
430.287	10447.88
430.397	10192.88
430.506	10144.88
430.615	10244.88
430.724	10408.88
430.833	10425.88
430.943	10376.88
431.052	10519.88
431.161	10589.88
431.27	10615.88
431.379	10655.88
431.488	11156.88
431.597	10788.88
431.706	11106.88
431.816	10943.88
431.925	10798.88
432.034	10949.88
432.143	10948.88
432.252	10854.88
432.361	10981.88
432.47	10865.88
432.579	11004.88
432.688	10762.88
432.797	11028.88
432.906	10854.88
433.015	11057.88
433.124	11332.88
433.233	11218.88
433.342	10946.88
433.451	10972.88
433.56	11142.88
433.669	10989.88
433.778	11025.88
433.886	11317.88
433.995	11234.88
434.104	11574.88
434.213	11580.88
434.322	11613.88
434.431	11838.88
434.54	12012.88
434.649	12334.88
434.757	12062.88
434.866	11948.88
434.975	11903.88
435.084	11697.88
435.193	11460.88
435.301	11611.88
435.41	11417.88
435.519	11422.88
435.628	10874.88
435.737	10728.88
435.845	10616.88
435.954	10486.88
436.063	10493.88
436.171	10480.88
436.28	10510.88
436.389	10775.88
436.498	10330.88
436.606	10359.88
436.715	10563.88
436.823	10231.88
436.932	9971.88
437.041	10056.88
437.149	10085.88
437.258	9872.88
437.367	9761.88
437.475	9865.88
437.584	9980.88
437.692	9678.88
437.801	11140.88
437.91	9690.88
438.018	9585.88
438.127	9535.88
438.235	9704.88
438.344	9709.88
438.452	9527.88
438.561	9392.88
438.669	9502.88
438.778	9345.88
438.886	9532.88
438.995	9401.88
439.103	9535.88
439.212	9492.88
439.32	9408.88
439.428	9368.88
439.537	9496.88
439.645	9605.88
439.754	9555.88
439.862	9326.88
439.97	9584.88
440.079	9531.88
440.187	9398.88
440.295	9752.88
440.404	9703.88
440.512	9654.88
440.62	9684.88
440.729	9757.88
440.837	9944.88
440.945	10636.88
441.054	10183.88
441.162	10166.88
441.27	10333.88
441.378	10592.88
441.487	10450.88
441.595	10876.88
441.703	10604.88
441.811	10227.88
441.92	10288.88
442.028	10129.88
442.136	10163.88
442.244	10127.88
442.352	10242.88
442.461	9926.88
442.569	10076.88
442.677	10128.88
442.785	10174.88
442.893	9944.88
443.001	9869.88
443.109	9962.88
443.217	10048.88
443.325	10067.88
443.434	10885.88
443.542	10600.88
443.65	10260.88
443.758	10576.88
443.866	10541.88
443.974	10850.88
444.082	10792.88
444.19	11023.88
444.298	11151.88
444.406	11376.88
444.514	11708.88
444.622	11692.88
444.73	11598.88
444.838	11523.88
444.946	11421.88
445.054	10903.88
445.161	10987.88
445.269	10750.88
445.377	10723.88
445.485	10532.88
445.593	10501.88
445.701	10500.88
445.809	10444.88
445.917	10422.88
446.025	10178.88
446.132	10454.88
446.24	10486.88
446.348	10270.88
446.456	10040.88
446.564	10276.88
446.671	10312.88
446.779	10056.88
446.887	10093.88
446.995	9978.88
447.102	10183.88
447.21	9985.88
447.318	10033.88
447.426	10005.88
447.533	10312.88
447.641	11194.88
447.749	9971.88
447.856	9965.88
447.964	10119.88
448.072	10016.88
448.179	9866.88
448.287	10124.88
448.395	10171.88
448.502	10071.88
448.61	10105.88
448.718	10107.88
448.825	10235.88
448.933	10054.88
449.04	10275.88
449.148	10276.88
449.256	10278.88
449.363	10472.88
449.471	10503.88
449.578	10584.88
449.686	10455.88
449.793	10683.88
449.901	10569.88
450.008	10616.88
450.116	10848.88
450.223	10767.88
450.331	10953.88
450.438	11214.88
450.546	11083.88
450.653	11256.88
450.76	11489.88
450.868	11365.88
450.975	11596.88
451.083	11450.88
451.19	11483.88
451.297	11319.88
451.405	11490.88
451.512	11627.88
451.619	11669.88
451.727	11706.88
451.834	11709.88
451.941	11696.88
452.049	11753.88
452.156	11865.88
452.263	11871.88
452.371	11979.88
452.478	11993.88
452.585	12187.88
452.692	11960.88
452.8	12151.88
452.907	12339.88
453.014	12163.88
453.121	12327.88
453.229	12487.88
453.336	12350.88
453.443	12269.88
453.55	12522.88
453.657	12243.88
453.765	12703.88
453.872	12489.88
453.979	12682.88
454.086	12844.88
454.193	12858.88
454.3	12698.88
454.407	12988.88
454.514	12985.88
454.621	12784.88
454.729	12763.88
454.836	12949.88
454.943	13189.88
455.05	13005.88
455.157	13218.88
455.264	13101.88
455.371	13227.88
455.478	13346.88
455.585	13651.88
455.692	13441.88
455.799	13691.88
455.906	13485.88
456.013	13433.88
456.12	13567.88
456.227	13565.88
456.334	13799.88
456.44	13709.88
456.547	13803.88
456.654	13638.88
456.761	14104.88
456.868	14103.88
456.975	13986.88
457.082	14124.88
457.189	14063.88
457.296	14252.88
457.402	14179.88
457.509	14115.88
457.616	14545.88
457.723	14545.88
457.83	14505.88
457.936	14545.88
458.043	14545.88
458.15	14545.88
458.257	14545.88
458.363	14545.88
458.47	14545.88
458.577	14545.88
458.684	14545.88
458.79	14545.88
458.897	14545.88
459.004	14545.88
459.11	14545.88
459.217	14545.88
459.324	14545.88
459.43	14545.88
459.537	14545.88
459.644	14545.88
459.75	14545.88
459.857	14545.88
459.964	14545.88
460.07	14545.88
460.177	14545.88
460.283	14545.88
460.39	14545.88
460.496	14545.88
460.603	14545.88
460.71	14545.88
460.816	14545.88
460.923	14545.88
461.029	14545.88
461.136	14545.88
461.242	14545.88
461.349	14545.88
461.455	14545.88
461.562	14545.88
461.668	14545.88
461.774	14545.88
461.881	14545.88
461.987	14545.88
462.094	14545.88
462.2	14545.88
462.307	14545.88
462.413	14545.88
462.519	14545.88
462.626	14545.88
462.732	14545.88
462.838	14545.88
462.945	14545.88
463.051	14545.88
463.157	14545.88
463.264	14545.88
463.37	14545.88
463.476	14545.88
463.583	14545.88
463.689	14545.88
463.795	14545.88
463.901	14545.88
464.008	14545.88
464.114	14545.88
464.22	14545.88
464.326	14545.88
464.433	14545.88
464.539	14545.88
464.645	14545.88
464.751	14545.88
464.857	14545.88
464.963	14545.88
465.07	14545.88
465.176	14545.88
465.282	14545.88
465.388	14545.88
465.494	14545.88
465.6	14545.88
465.706	14545.88
465.812	14545.88
465.918	14545.88
466.024	14545.88
466.131	14545.88
466.237	14341.88
466.343	14176.88
466.449	14004.88
466.555	13718.88
466.661	13664.88
466.767	13612.88
466.873	13488.88
466.979	13662.88
467.085	13329.88
467.191	13447.88
467.296	13313.88
467.402	13230.88
467.508	13175.88
467.614	13189.88
467.72	12870.88
467.826	12747.88
467.932	12686.88
468.038	12515.88
468.144	12367.88
468.25	12315.88
468.355	12308.88
468.461	12405.88
468.567	12219.88
468.673	12124.88
468.779	12238.88
468.885	12155.88
468.99	12008.88
469.096	12197.88
469.202	12312.88
469.308	12218.88
469.413	12394.88
469.519	12249.88
469.625	12283.88
469.731	12207.88
469.836	12329.88
469.942	12432.88
470.048	12338.88
470.153	12536.88
470.259	12451.88
470.365	12505.88
470.47	12616.88
470.576	12205.88
470.682	12222.88
470.787	12148.88
470.893	11872.88
470.999	11932.88
471.104	11807.88
471.21	11683.88
471.315	11381.88
471.421	11275.88
471.527	11531.88
471.632	11225.88
471.738	11015.88
471.843	10948.88
471.949	10901.88
472.054	10942.88
472.16	10855.88
472.265	10872.88
472.371	10747.88
472.476	10689.88
472.582	10643.88
472.687	10535.88
472.793	10523.88
472.898	10442.88
473.003	10408.88
473.109	10307.88
473.214	10351.88
473.32	10358.88
473.425	10244.88
473.53	10268.88
473.636	10144.88
473.741	10088.88
473.847	10112.88
473.952	10186.88
474.057	10073.88
474.163	10265.88
474.268	10100.88
474.373	10104.88
474.478	10094.88
474.584	10111.88
474.689	10149.88
474.794	10229.88
474.9	10510.88
475.005	10129.88
475.11	10414.88
475.215	10183.88
475.321	10080.88
475.426	10317.88
475.531	10295.88
475.636	10283.88
475.741	10108.88
475.846	10442.88
475.952	10609.88
476.057	10353.88
476.162	10411.88
476.267	10478.88
476.372	10618.88
476.477	10420.88
476.582	10474.88
476.687	10572.88
476.793	10603.88
476.898	10546.88
477.003	10764.88
477.108	10710.88
477.213	10775.88
477.318	10914.88
477.423	11036.88
477.528	11063.88
477.633	11260.88
477.738	11414.88
477.843	11300.88
477.948	11526.88
478.053	11729.88
478.158	11556.88
478.263	11760.88
478.368	11897.88
478.473	12020.88
478.578	12158.88
478.682	12036.88
478.787	12238.88
478.892	12004.88
478.997	12276.88
479.102	12116.88
479.207	12203.88
479.312	12461.88
479.417	12284.88
479.521	12222.88
479.626	12557.88
479.731	12416.88
479.836	12484.88
479.941	12748.88
480.045	13058.88
480.15	13046.88
480.255	13155.88
480.36	13167.88
480.465	13243.88
480.569	13326.88
480.674	12944.88
480.779	12837.88
480.883	12899.88
480.988	12876.88
481.093	12952.88
481.197	12653.88
481.302	12661.88
481.407	12703.88
481.511	14545.88
481.616	12935.88
481.721	12804.88
481.825	12891.88
481.93	12543.88
482.035	12858.88
482.139	12749.88
482.244	12660.88
482.348	12875.88
482.453	13059.88
482.557	12904.88
482.662	12977.88
482.767	13211.88
482.871	13068.88
482.976	13186.88
483.08	13292.88
483.185	13360.88
483.289	13426.88
483.394	13534.88
483.498	13507.88
483.603	13513.88
483.707	13743.88
483.811	14014.88
483.916	13981.88
484.02	14118.88
484.125	14272.88
484.229	14248.88
484.333	14508.88
484.438	14431.88
484.542	14528.88
484.647	14545.88
484.751	14545.88
484.855	14545.88
484.96	14545.88
485.064	14545.88
485.168	14545.88
485.273	14545.88
485.377	14545.88
485.481	14545.88
485.585	14545.88
485.69	14545.88
485.794	14545.88
485.898	14545.88
486.002	14545.88
486.107	14545.88
486.211	14545.88
486.315	14545.88
486.419	14545.88
486.524	14545.88
486.628	14545.88
486.732	14545.88
486.836	14545.88
486.94	14545.88
487.044	14545.88
487.148	14545.88
487.253	14545.88
487.357	14545.88
487.461	14545.88
487.565	14545.88
487.669	14545.88
487.773	14545.88
487.877	14545.88
487.981	14545.88
488.085	14545.88
488.189	14545.88
488.293	14545.88
488.397	14545.88
488.501	14545.88
488.605	14545.88
488.709	14545.88
488.813	14545.88
488.917	14545.88
489.021	14545.88
489.125	14545.88
489.229	14545.88
489.333	14545.88
489.437	14545.88
489.541	14545.88
489.645	14545.88
489.749	14545.88
489.853	14545.88
489.956	14545.88
490.06	14545.88
490.164	14545.88
490.268	14545.88
490.372	14545.88
490.476	14545.88
490.579	14545.88
490.683	14545.88
490.787	14545.88
490.891	14545.88
490.995	14545.88
491.098	14545.88
491.202	14545.88
491.306	14545.88
491.41	14545.88
491.513	14545.88
491.617	14545.88
491.721	14545.88
491.824	14545.88
491.928	14545.88
492.032	14545.88
492.136	14545.88
492.239	14545.88
492.343	14545.88
492.446	14545.88
492.55	14545.88
492.654	14545.88
492.757	14545.88
492.861	14545.88
492.965	14545.88
493.068	14545.88
493.172	14545.88
493.275	14545.88
493.379	14545.88
493.482	14545.88
493.586	14545.88
493.689	14545.88
493.793	14545.88
493.896	14545.88
494	14545.88
494.103	14545.88
494.207	14545.88
494.31	14545.88
494.414	14545.88
494.517	14545.88
494.621	14545.88
494.724	14545.88
494.828	14545.88
494.931	14545.88
495.034	14545.88
495.138	14545.88
495.241	14545.88
495.345	14545.88
495.448	14545.88
495.551	14545.88
495.655	14545.88
495.758	14545.88
495.861	14545.88
495.965	14545.88
496.068	14545.88
496.171	14545.88
496.274	14545.88
496.378	14545.88
496.481	14545.88
496.584	14545.88
496.687	14545.88
496.791	14545.88
496.894	14545.88
496.997	14545.88
497.1	14545.88
497.204	14545.88
497.307	14545.88
497.41	14545.88
497.513	14545.88
497.616	14545.88
497.719	14545.88
497.823	14545.88
497.926	14545.88
498.029	14545.88
498.132	14545.88
498.235	14545.88
498.338	14545.88
498.441	14545.88
498.544	14545.88
498.647	14545.88
498.75	14545.88
498.853	14545.88
498.956	14545.88
499.059	14545.88
499.163	14545.88
499.266	14545.88
499.369	14545.88
499.471	14545.88
499.574	14545.88
499.677	14545.88
499.78	14545.88
499.883	14545.88
499.986	14545.88
500.089	14545.88
500.192	14545.88
500.295	14545.88
500.398	14545.88
500.501	14545.88
500.604	14545.88
500.707	14545.88
500.809	14545.88
500.912	14545.88
501.015	14545.88
501.118	14545.88
501.221	14545.88
501.324	14545.88
501.426	14545.88
501.529	14545.88
501.632	14545.88
501.735	14545.88
501.837	14545.88
501.94	14545.88
502.043	14545.88
502.146	14545.88
502.248	14545.88
502.351	14545.88
502.454	14545.88
502.557	14545.88
502.659	14545.88
502.762	14545.88
502.865	14545.88
502.967	14545.88
503.07	14545.88
503.173	14545.88
503.275	14545.88
503.378	14545.88
503.48	14545.88
503.583	14545.88
503.686	14537.88
503.788	14545.88
503.891	14479.88
503.993	14545.88
504.096	14333.88
504.198	14497.88
504.301	14545.88
504.403	14509.88
504.506	14496.88
504.608	14201.88
504.711	13923.88
504.813	13779.88
504.916	13343.88
505.018	13002.88
505.121	12648.88
505.223	12677.88
505.326	12582.88
505.428	12425.88
505.531	12039.88
505.633	12006.88
505.735	11883.88
505.838	11867.88
505.94	11837.88
506.042	11700.88
506.145	11515.88
506.247	11603.88
506.35	11574.88
506.452	11388.88
506.554	11342.88
506.656	11224.88
506.759	11213.88
506.861	11194.88
506.963	11096.88
507.066	11133.88
507.168	11108.88
507.27	10979.88
507.372	10838.88
507.475	10837.88
507.577	10859.88
507.679	10815.88
507.781	10665.88
507.883	10821.88
507.986	10588.88
508.088	10551.88
508.19	10565.88
508.292	10558.88
508.394	10262.88
508.496	10328.88
508.598	10531.88
508.701	10488.88
508.803	10506.88
508.905	10398.88
509.007	10206.88
509.109	10354.88
509.211	10328.88
509.313	10266.88
509.415	10154.88
509.517	10226.88
509.619	10305.88
509.721	10070.88
509.823	10094.88
509.925	10487.88
510.027	9996.88
510.129	9908.88
510.231	10112.88
510.333	10071.88
510.435	10184.88
510.537	10190.88
510.639	10085.88
510.741	10066.88
510.843	10136.88
510.945	10069.88
511.047	10151.88
511.148	10147.88
511.25	10119.88
511.352	10023.88
511.454	10047.88
511.556	10223.88
511.658	10095.88
511.76	10217.88
511.861	10349.88
511.963	10132.88
512.065	10111.88
512.167	10064.88
512.268	10444.88
512.37	10130.88
512.472	10275.88
512.574	10219.88
512.676	10136.88
512.777	10138.88
512.879	10279.88
512.981	10187.88
513.082	10301.88
513.184	10269.88
513.286	10790.88
513.387	10377.88
513.489	10578.88
513.591	10530.88
513.692	10565.88
513.794	10484.88
513.896	10421.88
513.997	10380.88
514.099	10276.88
514.2	10691.88
514.302	10630.88
514.404	10594.88
514.505	10704.88
514.607	10803.88
514.708	10708.88
514.81	10938.88
514.911	10908.88
515.013	10999.88
515.114	11054.88
515.216	10956.88
515.317	11256.88
515.419	11153.88
515.52	11355.88
515.622	11272.88
515.723	11421.88
515.825	11856.88
515.926	11599.88
516.027	11652.88
516.129	11842.88
516.23	12119.88
516.332	12149.88
516.433	12419.88
516.534	12591.88
516.636	12600.88
516.737	12900.88
516.838	14220.88
516.94	13518.88
517.041	13645.88
517.142	13957.88
517.244	14000.88
517.345	14142.88
517.446	14469.88
517.547	14524.88
517.649	14366.88
517.75	14446.88
517.851	14339.88
517.952	14478.88
518.054	14269.88
518.155	14351.88
518.256	13740.88
518.357	13678.88
518.458	13581.88
518.56	13441.88
518.661	13184.88
518.762	13064.88
518.863	13173.88
518.964	13042.88
519.065	12728.88
519.166	12669.88
519.268	12456.88
519.369	12479.88
519.47	12360.88
519.571	12419.88
519.672	12191.88
519.773	12103.88
519.874	12228.88
519.975	12057.88
520.076	11940.88
520.177	12139.88
520.278	11993.88
520.379	11928.88
520.48	11858.88
520.581	11709.88
520.682	11746.88
520.783	11779.88
520.884	11899.88
520.985	11729.88
521.086	11757.88
521.187	11818.88
521.288	11668.88
521.389	11693.88
521.489	11621.88
521.59	11577.88
521.691	11550.88
521.792	11550.88
521.893	11572.88
521.994	11610.88
522.095	11670.88
522.195	11646.88
522.296	11563.88
522.397	11700.88
522.498	11609.88
522.599	11540.88
522.699	11639.88
522.8	11531.88
522.901	11602.88
523.002	11440.88
523.102	11864.88
523.203	11560.88
523.304	11721.88
523.405	11585.88
523.505	11499.88
523.606	11610.88
523.707	11613.88
523.807	11508.88
523.908	11541.88
524.009	11809.88
524.109	11654.88
524.21	11525.88
524.31	11661.88
524.411	11919.88
524.512	11744.88
524.612	11610.88
524.713	11782.88
524.813	11608.88
524.914	11907.88
525.014	14545.88
525.115	11867.88
525.216	11587.88
525.316	11640.88
525.417	11740.88
525.517	11635.88
525.618	11649.88
525.718	11509.88
525.819	11492.88
525.919	11659.88
526.019	11712.88
526.12	11491.88
526.22	11551.88
526.321	11655.88
526.421	11611.88
526.522	11439.88
526.622	11488.88
526.722	11640.88
526.823	11597.88
526.923	11608.88
527.023	11700.88
527.124	11556.88
527.224	11779.88
527.324	11601.88
527.425	11545.88
527.525	11370.88
527.625	11606.88
527.726	11632.88
527.826	11485.88
527.926	11600.88
528.026	11654.88
528.127	11492.88
528.227	11558.88
528.327	11647.88
528.427	11499.88
528.528	11468.88
528.628	11630.88
528.728	11572.88
528.828	11639.88
528.928	11555.88
529.029	11532.88
529.129	11460.88
529.229	11570.88
529.329	11503.88
529.429	11507.88
529.529	11534.88
529.629	11476.88
529.729	11384.88
529.829	11499.88
529.93	11359.88
530.03	11387.88
530.13	11345.88
530.23	11489.88
530.33	11447.88
530.43	11269.88
530.53	11242.88
530.63	11258.88
530.73	11142.88
530.83	10885.88
530.93	11143.88
531.03	11147.88
531.13	11204.88
531.23	11226.88
531.33	11138.88
531.429	11144.88
531.529	11094.88
531.629	11182.88
531.729	11079.88
531.829	11059.88
531.929	11180.88
532.029	10932.88
532.129	10863.88
532.229	11092.88
532.328	10828.88
532.428	10958.88
532.528	10871.88
532.628	10719.88
532.728	10797.88
532.827	10822.88
532.927	10760.88
533.027	10743.88
533.127	10957.88
533.227	10824.88
533.326	10657.88
533.426	10572.88
533.526	10621.88
533.625	10776.88
533.725	10729.88
533.825	10525.88
533.924	10365.88
534.024	10308.88
534.124	10392.88
534.223	10423.88
534.323	10787.88
534.423	10325.88
534.522	10212.88
534.622	10026.88
534.722	10108.88
534.821	10180.88
534.921	10082.88
535.02	9877.88
535.12	10096.88
535.219	10077.88
535.319	9973.88
535.419	10123.88
535.518	9785.88
535.618	9848.88
535.717	9948.88
535.817	9701.88
535.916	9577.88
536.016	9681.88
536.115	9572.88
536.215	9454.88
536.314	9463.88
536.413	9403.88
536.513	9366.88
536.612	9444.88
536.712	9181.88
536.811	9220.88
536.91	9206.88
537.01	9128.88
537.109	9356.88
537.209	9278.88
537.308	9129.88
537.407	8995.88
537.507	9077.88
537.606	9024.88
537.705	9264.88
537.805	9021.88
537.904	8989.88
538.003	9107.88
538.102	9120.88
538.202	8792.88
538.301	8984.88
538.4	8970.88
538.499	8740.88
538.599	8826.88
538.698	9071.88
538.797	8728.88
538.896	8900.88
538.995	8860.88
539.095	8699.88
539.194	8869.88
539.293	8719.88
539.392	8694.88
539.491	8579.88
539.59	8536.88
539.689	8670.88
539.789	8560.88
539.888	8358.88
539.987	8345.88
540.086	8501.88
540.185	8378.88
540.284	8360.88
540.383	8368.88
540.482	8384.88
540.581	8427.88
540.68	8325.88
540.779	8347.88
540.878	8382.88
540.977	8358.88
541.076	8414.88
541.175	8252.88
541.274	8533.88
541.373	8257.88
541.472	8246.88
541.571	8222.88
541.67	9425.88
541.769	8233.88
541.868	8268.88
541.966	8100.88
542.065	8223.88
542.164	8095.88
542.263	7947.88
542.362	7915.88
542.461	8103.88
542.56	8031.88
542.658	8027.88
542.757	8052.88
542.856	7966.88
542.955	7973.88
543.054	7831.88
543.152	8116.88
543.251	7840.88
543.35	8106.88
543.449	7945.88
543.547	7941.88
543.646	7838.88
543.745	7897.88
543.843	8004.88
543.942	7926.88
544.041	7900.88
544.14	8040.88
544.238	7921.88
544.337	8236.88
544.436	8056.88
544.534	8089.88
544.633	8008.88
544.731	7971.88
544.83	7958.88
544.929	7951.88
545.027	8051.88
545.126	8051.88
545.224	8133.88
545.323	8009.88
545.421	8026.88
545.52	8099.88
545.619	8105.88
545.717	7977.88
545.816	8041.88
545.914	8014.88
546.013	8140.88
546.111	8047.88
546.209	7834.88
546.308	7807.88
546.406	7948.88
546.505	8032.88
546.603	7881.88
546.702	7878.88
546.8	7835.88
546.899	7855.88
546.997	8152.88
547.095	7827.88
547.194	7937.88
547.292	8012.88
547.39	8031.88
547.489	7928.88
547.587	8241.88
547.685	7907.88
547.784	8164.88
547.882	8016.88
547.98	7841.88
548.079	7997.88
548.177	7916.88
548.275	7967.88
548.373	8107.88
548.472	7855.88
548.57	7909.88
548.668	8052.88
548.766	7822.88
548.864	8049.88
548.963	7991.88
549.061	8106.88
549.159	7849.88
549.257	8115.88
549.355	7991.88
549.454	7959.88
549.552	8159.88
549.65	8035.88
549.748	7941.88
549.846	8068.88
549.944	7800.88
550.042	7859.88
550.14	7968.88
550.238	7998.88
550.336	7784.88
550.434	7846.88
550.532	7801.88
550.631	7802.88
550.729	7905.88
550.827	7971.88
550.925	7746.88
551.023	7805.88
551.121	7737.88
551.218	7713.88
551.316	7662.88
551.414	7802.88
551.512	7742.88
551.61	7805.88
551.708	7878.88
551.806	8029.88
551.904	7961.88
552.002	7975.88
552.1	8091.88
552.198	8014.88
552.296	8283.88
552.393	8366.88
552.491	8487.88
552.589	8439.88
552.687	8584.88
552.785	8471.88
552.882	8715.88
552.98	8853.88
553.078	8863.88
553.176	8647.88
553.274	8675.88
553.371	8609.88
553.469	8539.88
553.567	8502.88
553.665	8494.88
553.762	8840.88
553.86	8458.88
553.958	8384.88
554.055	8309.88
554.153	8259.88
554.251	8152.88
554.348	8188.88
554.446	7935.88
554.544	8007.88
554.641	8324.88
554.739	7851.88
554.837	7758.88
554.934	7964.88
555.032	7727.88
555.129	7690.88
555.227	8016.88
555.324	11480.88
555.422	7897.88
555.519	7623.88
555.617	7504.88
555.715	7412.88
555.812	7945.88
555.91	7508.88
556.007	7329.88
556.105	7341.88
556.202	7520.88
556.299	7418.88
556.397	7391.88
556.494	7368.88
556.592	7287.88
556.689	7336.88
556.787	7245.88
556.884	7263.88
556.981	7296.88
557.079	7168.88
557.176	7422.88
557.273	7395.88
557.371	7336.88
557.468	7308.88
557.566	7316.88
557.663	7248.88
557.76	7285.88
557.857	7259.88
557.955	7291.88
558.052	7375.88
558.149	7454.88
558.247	7441.88
558.344	7274.88
558.441	7251.88
558.538	7292.88
558.636	7181.88
558.733	7296.88
558.83	7222.88
558.927	7303.88
559.024	7203.88
559.122	7175.88
559.219	7247.88
559.316	7306.88
559.413	7385.88
559.51	7223.88
559.607	7308.88
559.704	7395.88
559.801	7289.88
559.899	7263.88
559.996	7598.88
560.093	7304.88
560.19	7259.88
560.287	7402.88
560.384	7493.88
560.481	7341.88
560.578	7370.88
560.675	7347.88
560.772	7458.88
560.869	7366.88
560.966	7720.88
561.063	7376.88
561.16	7492.88
561.257	7542.88
561.354	7371.88
561.451	7411.88
561.548	7600.88
561.645	7656.88
561.742	7501.88
561.838	7535.88
561.935	7591.88
562.032	7550.88
562.129	7481.88
562.226	7594.88
562.323	7519.88
562.42	7699.88
562.516	7559.88
562.613	7542.88
562.71	7677.88
562.807	8497.88
562.904	7722.88
563	7701.88
563.097	7788.88
563.194	7830.88
563.291	7769.88
563.387	7813.88
563.484	7934.88
563.581	7872.88
563.678	7889.88
563.774	8380.88
563.871	7951.88
563.968	8067.88
564.064	8195.88
564.161	8148.88
564.258	8189.88
564.354	8358.88
564.451	8387.88
564.548	8361.88
564.644	8403.88
564.741	8468.88
564.837	8511.88
564.934	8656.88
565.031	8665.88
565.127	8693.88
565.224	9113.88
565.32	9207.88
565.417	9160.88
565.513	9383.88
565.61	9503.88
565.706	9773.88
565.803	9829.88
565.899	9981.88
565.996	10492.88
566.092	10435.88
566.189	10670.88
566.285	11143.88
566.382	11328.88
566.478	11856.88
566.574	11910.88
566.671	12034.88
566.767	12180.88
566.864	12147.88
566.96	12192.88
567.056	12223.88
567.153	12821.88
567.249	12695.88
567.345	12931.88
567.442	13239.88
567.538	13477.88
567.634	13705.88
567.731	13725.88
567.827	13751.88
567.923	13468.88
568.019	13215.88
568.116	12712.88
568.212	12236.88
568.308	11971.88
568.404	11577.88
568.501	11352.88
568.597	10981.88
568.693	10509.88
568.789	11037.88
568.885	10034.88
568.982	9950.88
569.078	9622.88
569.174	9534.88
569.27	9098.88
569.366	9090.88
569.462	8905.88
569.558	8765.88
569.655	8680.88
569.751	8481.88
569.847	8412.88
569.943	8389.88
570.039	8323.88
570.135	8614.88
570.231	8196.88
570.327	8443.88
570.423	8372.88
570.519	8324.88
570.615	8159.88
570.711	8244.88
570.807	8323.88
570.903	8094.88
570.999	8189.88
571.095	8063.88
571.191	8048.88
571.287	7966.88
571.383	7729.88
571.479	7674.88
571.574	7665.88
571.67	7401.88
571.766	7612.88
571.862	7303.88
571.958	7330.88
572.054	7343.88
572.15	7148.88
572.246	7009.88
572.341	7071.88
572.437	7020.88
572.533	6969.88
572.629	6919.88
572.725	6896.88
572.82	6945.88
572.916	6921.88
573.012	6771.88
573.108	6929.88
573.203	6600.88
573.299	6631.88
573.395	6563.88
573.49	6597.88
573.586	6381.88
573.682	6509.88
573.778	6696.88
573.873	6468.88
573.969	6403.88
574.065	6390.88
574.16	6362.88
574.256	6447.88
574.351	6430.88
574.447	6301.88
574.543	6349.88
574.638	6512.88
574.734	6426.88
574.829	6514.88
574.925	6248.88
575.02	6218.88
575.116	6193.88
575.212	6222.88
575.307	6248.88
575.403	6025.88
575.498	6053.88
575.594	6045.88
575.689	6070.88
575.784	6114.88
575.88	5951.88
575.975	6089.88
576.071	5875.88
576.166	5950.88
576.262	5852.88
576.357	5816.88
576.452	5937.88
576.548	5850.88
576.643	5696.88
576.739	5751.88
576.834	5865.88
576.929	5745.88
577.025	6321.88
577.12	5639.88
577.215	5596.88
577.311	5629.88
577.406	5704.88
577.501	5718.88
577.597	5425.88
577.692	5613.88
577.787	5660.88
577.882	5438.88
577.978	5395.88
578.073	5410.88
578.168	5263.88
578.263	5170.88
578.358	5298.88
578.454	5228.88
578.549	5173.88
578.644	5191.88
578.739	5205.88
578.834	5133.88
578.929	5123.88
579.025	5124.88
579.12	5147.88
579.215	5353.88
579.31	5271.88
579.405	5070.88
579.5	5011.88
579.595	5024.88
579.69	4958.88
579.785	4902.88
579.88	4964.88
579.975	5068.88
580.07	4930.88
580.165	4957.88
580.26	5044.88
580.355	4839.88
580.45	4806.88
580.545	4832.88
580.64	4770.88
580.735	4836.88
580.83	4823.88
580.925	4658.88
581.02	4577.88
581.115	4645.88
581.21	4577.88
581.305	4650.88
581.4	4697.88
581.495	4614.88
581.589	4609.88
581.684	4557.88
581.779	4718.88
581.874	4606.88
581.969	4592.88
582.064	4574.88
582.158	4546.88
582.253	4380.88
582.348	4499.88
582.443	4456.88
582.537	4465.88
582.632	4659.88
582.727	4476.88
582.822	4329.88
582.916	4273.88
583.011	4371.88
583.106	4461.88
583.201	4300.88
583.295	4417.88
583.39	4312.88
583.485	4252.88
583.579	6249.88
583.674	4509.88
583.769	4544.88
583.863	4264.88
583.958	4287.88
584.052	4109.88
584.147	4191.88
584.242	4257.88
584.336	4178.88
584.431	4440.88
584.525	4147.88
584.62	4323.88
584.714	4179.88
584.809	4194.88
584.903	4264.88
584.998	4185.88
585.092	4039.88
585.187	4212.88
585.281	4000.88
585.376	4000.88
585.47	4133.88
585.565	4030.88
585.659	3981.88
585.754	3983.88
585.848	4118.88
585.942	3980.88
586.037	3991.88
586.131	6449.88
586.226	3995.88
586.32	4024.88
586.414	3881.88
586.509	4016.88
586.603	4025.88
586.697	3879.88
586.792	3912.88
586.886	3808.88
586.98	4023.88
587.075	3863.88
587.169	3808.88
587.263	3991.88
587.357	3872.88
587.452	3822.88
587.546	3904.88
587.64	3847.88
587.734	3885.88
587.829	3888.88
587.923	3784.88
588.017	3794.88
588.111	3801.88
588.205	3964.88
588.3	3811.88
588.394	3800.88
588.488	3844.88
588.582	4021.88
588.676	4181.88
588.77	5303.88
588.864	8619.88
588.958	9490.88
589.052	8038.88
589.147	5800.88
589.241	4674.88
589.335	4583.88
589.429	6360.88
589.523	7568.88
589.617	7014.88
589.711	5424.88
589.805	4535.88
589.899	4122.88
589.993	3882.88
590.087	3847.88
590.181	3647.88
590.275	3805.88
590.369	3780.88
590.462	3671.88
590.556	3616.88
590.65	3614.88
590.744	3612.88
590.838	3567.88
590.932	3683.88
591.026	3836.88
591.12	3827.88
591.214	3738.88
591.307	3751.88
591.401	3720.88
591.495	3754.88
591.589	3805.88
591.683	3836.88
591.777	3934.88
591.87	4252.88
591.964	3869.88
592.058	3758.88
592.152	3908.88
592.245	3956.88
592.339	3998.88
592.433	4064.88
592.527	4099.88
592.62	4045.88
592.714	4125.88
592.808	4203.88
592.901	4183.88
592.995	4192.88
593.089	4479.88
593.182	4199.88
593.276	4131.88
593.37	4141.88
593.463	4099.88
593.557	4229.88
593.65	4142.88
593.744	4275.88
593.837	4326.88
593.931	4133.88
594.025	7562.88
594.118	4352.88
594.212	4072.88
594.305	4139.88
594.399	4104.88
594.492	4306.88
594.586	3939.88
594.679	3916.88
594.773	3765.88
594.866	3829.88
594.96	3788.88
595.053	3643.88
595.146	3617.88
595.24	3637.88
595.333	3473.88
595.427	3463.88
595.52	3358.88
595.614	3533.88
595.707	3436.88
595.8	3412.88
595.894	3325.88
595.987	3224.88
596.08	3200.88
596.174	3645.88
596.267	3344.88
596.36	3317.88
596.454	3447.88
596.547	3159.88
596.64	3063.88
596.733	3082.88
596.827	3152.88
596.92	3048.88
597.013	2964.88
597.106	2926.88
597.2	2903.88
597.293	2924.88
597.386	3197.88
597.479	3055.88
597.572	2959.88
597.666	2887.88
597.759	2816.88
597.852	2942.88
597.945	2885.88
598.038	2855.88
598.131	2802.88
598.224	2885.88
598.317	2879.88
598.411	2845.88
598.504	2806.88
598.597	2893.88
598.69	2804.88
598.783	2815.88
598.876	2855.88
598.969	2880.88
599.062	2747.88
599.155	2896.88
599.248	2766.88
599.341	2830.88
599.434	2763.88
599.527	2838.88
599.62	2733.88
599.713	2638.88
599.806	2848.88
599.899	2874.88
599.991	2614.88
600.084	2946.88
600.177	2638.88
600.27	2728.88
600.363	2918.88
600.456	2683.88
600.549	2736.88
600.642	2664.88
600.734	2711.88
600.827	2640.88
600.92	2821.88
601.013	2682.88
601.106	2774.88
601.199	2607.88
601.291	2634.88
601.384	2654.88
601.477	2813.88
601.57	2765.88
601.662	2596.88
601.755	2589.88
601.848	2638.88
601.94	2568.88
602.033	2702.88
602.126	2599.88
602.219	2591.88
602.311	2649.88
602.404	2556.88
602.497	2608.88
602.589	2536.88
602.682	2641.88
602.774	2650.88
602.867	2517.88
602.96	2545.88
603.052	2597.88
603.145	2524.88
603.237	2510.88
603.33	2552.88
603.422	2660.88
603.515	2452.88
603.608	2624.88
603.7	2536.88
603.793	2499.88
603.885	2500.88
603.978	2585.88
604.07	2541.88
604.163	2486.88
604.255	2537.88
604.347	2551.88
604.44	2454.88
604.532	2466.88
604.625	2489.88
604.717	2460.88
604.81	2509.88
604.902	2445.88
604.994	2396.88
605.087	2503.88
605.179	2549.88
605.271	2464.88
605.364	2430.88
605.456	2552.88
605.548	2436.88
605.641	2410.88
605.733	2479.88
605.825	2473.88
605.918	2408.88
606.01	2594.88
606.102	2926.88
606.194	2461.88
606.287	2582.88
606.379	2441.88
606.471	2444.88
606.563	2430.88
606.655	2484.88
606.748	2511.88
606.84	2347.88
606.932	2476.88
607.024	2381.88
607.116	2312.88
607.208	2343.88
607.301	2459.88
607.393	2343.88
607.485	2413.88
607.577	2468.88
607.669	2508.88
607.761	2452.88
607.853	2680.88
607.945	2397.88
608.037	2292.88
608.129	2330.88
608.221	2364.88
608.313	2313.88
608.405	2391.88
608.497	2382.88
608.589	2286.88
608.681	2336.88
608.773	2457.88
608.865	2292.88
608.957	2341.88
609.049	2320.88
609.141	2402.88
609.233	2355.88
609.325	2340.88
609.417	2337.88
609.509	2402.88
609.601	2523.88
609.693	2515.88
609.784	2264.88
609.876	2426.88
609.968	2385.88
610.06	4563.88
610.152	2515.88
610.244	2608.88
610.335	2351.88
610.427	2290.88
610.519	2328.88
610.611	2300.88
610.702	2231.88
610.794	2232.88
610.886	2326.88
610.978	2199.88
611.069	2693.88
611.161	2243.88
611.253	2176.88
611.344	2058.88
611.436	2028.88
611.528	2023.88
611.62	1980.88
611.711	2009.88
611.803	2033.88
611.894	1932.88
611.986	1906.88
612.078	1979.88
612.169	1893.88
612.261	1848.88
612.352	1820.88
612.444	1729.88
612.536	1879.88
612.627	1797.88
612.719	1691.88
612.81	1665.88
612.902	1634.88
612.993	1699.88
613.085	1657.88
613.176	1531.88
613.268	1572.88
613.359	1570.88
613.451	1536.88
613.542	1635.88
613.634	1459.88
613.725	1507.88
613.816	1619.88
613.908	1370.88
613.999	1383.88
614.091	1288.88
614.182	1296.88
614.273	1336.88
614.365	1255.88
614.456	1239.88
614.547	1211.88
614.639	1155.88
614.73	1200.88
614.821	1172.88
614.913	1100.88
615.004	1071.88
615.095	956.88
615.187	955.88
