Data from 14g_HRC06701__44__227.txt Node

Date: Thu Apr 18 01:58:38 CDT 2024
User: Estudiantes 2
Spectrometer: HR+C0670
Trigger mode: 4
Integration Time (sec): 1.000000E0
Scans to average: 1
Electric dark correction enabled: true
Nonlinearity correction enabled: false
Boxcar width: 0
XAxis mode: Wavelengths
Number of Pixels in Spectrum: 2048
>>>>>Begin Spectral Data<<<<<
407.81	-95.31
407.921	-95.31
408.032	-95.31
408.143	-158.31
408.254	-121.31
408.365	47.69
408.476	262.69
408.587	-25.31
408.699	-5.31
408.81	17.69
408.921	-67.31
409.032	-31.31
409.143	65.69
409.254	20.69
409.365	94.69
409.476	5.69
409.587	-18.31
409.698	7.69
409.809	82.69
409.92	-45.31
410.031	-49.31
410.142	57.69
410.253	30.69
410.364	22.69
410.475	1760.69
410.585	8448.69
410.696	9089.69
410.807	8969.69
410.918	8868.69
411.029	9001.69
411.14	8905.69
411.251	9091.69
411.362	9094.69
411.472	9196.69
411.583	9116.69
411.694	9316.69
411.805	9242.69
411.916	9468.69
412.026	9343.69
412.137	9302.69
412.248	9222.69
412.359	9339.69
412.47	9055.69
412.58	8848.69
412.691	9200.69
412.802	8958.69
412.912	9035.69
413.023	9046.69
413.134	9026.69
413.245	8844.69
413.355	9156.69
413.466	9080.69
413.577	9035.69
413.687	9049.69
413.798	9019.69
413.909	9145.69
414.019	9088.69
414.13	9178.69
414.24	8944.69
414.351	9114.69
414.462	9463.69
414.572	9154.69
414.683	9194.69
414.793	9303.69
414.904	9413.69
415.014	9081.69
415.125	8961.69
415.235	9148.69
415.346	9296.69
415.456	9192.69
415.567	9063.69
415.677	8992.69
415.788	9088.69
415.898	9053.69
416.009	8996.69
416.119	9119.69
416.23	9048.69
416.34	9047.69
416.45	9095.69
416.561	10002.69
416.671	9106.69
416.782	9191.69
416.892	9208.69
417.002	9240.69
417.113	9418.69
417.223	9243.69
417.333	9225.69
417.444	9420.69
417.554	9442.69
417.664	9573.69
417.775	9400.69
417.885	9660.69
417.995	9574.69
418.106	10059.69
418.216	9675.69
418.326	9927.69
418.436	10137.69
418.547	10199.69
418.657	10140.69
418.767	10363.69
418.877	10342.69
418.987	10375.69
419.098	10437.69
419.208	10432.69
419.318	10346.69
419.428	10579.69
419.538	10225.69
419.648	10360.69
419.759	10236.69
419.869	10270.69
419.979	10239.69
420.089	10323.69
420.199	10329.69
420.309	10359.69
420.419	10323.69
420.529	10526.69
420.639	11016.69
420.749	10608.69
420.859	10571.69
420.969	10749.69
421.079	10815.69
421.189	10632.69
421.299	10611.69
421.409	10770.69
421.519	10934.69
421.629	11139.69
421.739	10977.69
421.849	10964.69
421.959	11101.69
422.069	11066.69
422.179	11039.69
422.289	11231.69
422.399	11572.69
422.509	11550.69
422.619	14548.69
422.729	11959.69
422.838	11520.69
422.948	11864.69
423.058	11894.69
423.168	11933.69
423.278	12012.69
423.388	12352.69
423.498	12762.69
423.607	12405.69
423.717	12797.69
423.827	12815.69
423.937	12709.69
424.046	12666.69
424.156	12989.69
424.266	12886.69
424.376	13242.69
424.485	13016.69
424.595	12950.69
424.705	13121.69
424.815	13143.69
424.924	13668.69
425.034	13169.69
425.144	13096.69
425.253	13130.69
425.363	13440.69
425.473	13369.69
425.582	13406.69
425.692	13474.69
425.801	13252.69
425.911	13825.69
426.021	13569.69
426.13	13977.69
426.24	13752.69
426.349	14111.69
426.459	13914.69
426.568	13829.69
426.678	14167.69
426.787	14106.69
426.897	14021.69
427.006	14277.69
427.116	14263.69
427.225	14419.69
427.335	14548.69
427.444	14456.69
427.554	14419.69
427.663	14548.69
427.773	14548.69
427.882	14548.69
427.992	14548.69
428.101	14548.69
428.21	14548.69
428.32	14548.69
428.429	14548.69
428.539	14548.69
428.648	14548.69
428.757	14548.69
428.867	14548.69
428.976	14548.69
429.085	14548.69
429.195	14548.69
429.304	14548.69
429.413	14548.69
429.523	14548.69
429.632	14548.69
429.741	14548.69
429.85	14548.69
429.96	14548.69
430.069	14548.69
430.178	14548.69
430.287	14548.69
430.397	14548.69
430.506	14548.69
430.615	14548.69
430.724	14548.69
430.833	14548.69
430.943	14548.69
431.052	14548.69
431.161	14548.69
431.27	14548.69
431.379	14548.69
431.488	14548.69
431.597	14548.69
431.706	14548.69
431.816	14548.69
431.925	14548.69
432.034	14548.69
432.143	14548.69
432.252	14548.69
432.361	14548.69
432.47	14548.69
432.579	14548.69
432.688	14548.69
432.797	14548.69
432.906	14548.69
433.015	14548.69
433.124	14548.69
433.233	14548.69
433.342	14548.69
433.451	14548.69
433.56	14548.69
433.669	14548.69
433.778	14548.69
433.886	14548.69
433.995	14548.69
434.104	14548.69
434.213	14548.69
434.322	14548.69
434.431	14548.69
434.54	14548.69
434.649	14548.69
434.757	14548.69
434.866	14548.69
434.975	14548.69
435.084	14548.69
435.193	14548.69
435.301	14548.69
435.41	14548.69
435.519	14548.69
435.628	14548.69
435.737	14548.69
435.845	14548.69
435.954	14548.69
436.063	14548.69
436.171	14548.69
436.28	14548.69
436.389	14548.69
436.498	14548.69
436.606	14548.69
436.715	14548.69
436.823	14548.69
436.932	14548.69
437.041	14548.69
437.149	14548.69
437.258	14548.69
437.367	14548.69
437.475	14548.69
437.584	14548.69
437.692	14548.69
437.801	14548.69
437.91	14548.69
438.018	14548.69
438.127	14548.69
438.235	14548.69
438.344	14548.69
438.452	14548.69
438.561	14548.69
438.669	14548.69
438.778	14548.69
438.886	14548.69
438.995	14548.69
439.103	14548.69
439.212	14548.69
439.32	14548.69
439.428	14548.69
439.537	14548.69
439.645	14548.69
439.754	14548.69
439.862	14548.69
439.97	14548.69
440.079	14548.69
440.187	14548.69
440.295	14548.69
440.404	14548.69
440.512	14548.69
440.62	14548.69
440.729	14548.69
440.837	14548.69
440.945	14548.69
441.054	14548.69
441.162	14548.69
441.27	14548.69
441.378	14548.69
441.487	14548.69
441.595	14548.69
441.703	14548.69
441.811	14548.69
441.92	14548.69
442.028	14548.69
442.136	14548.69
442.244	14548.69
442.352	14548.69
442.461	14548.69
442.569	14548.69
442.677	14548.69
442.785	14548.69
442.893	14548.69
443.001	14548.69
443.109	14548.69
443.217	14548.69
443.325	14548.69
443.434	14548.69
443.542	14548.69
443.65	14548.69
443.758	14548.69
443.866	14548.69
443.974	14548.69
444.082	14548.69
444.19	14548.69
444.298	14548.69
444.406	14548.69
444.514	14548.69
444.622	14548.69
444.73	14548.69
444.838	14548.69
444.946	14548.69
445.054	14548.69
445.161	14548.69
445.269	14548.69
445.377	14548.69
445.485	14548.69
445.593	14548.69
445.701	14548.69
445.809	14548.69
445.917	14548.69
446.025	14548.69
446.132	14548.69
446.24	14548.69
446.348	14548.69
446.456	14548.69
446.564	14548.69
446.671	14548.69
446.779	14548.69
446.887	14548.69
446.995	14548.69
447.102	14548.69
447.21	14548.69
447.318	14548.69
447.426	14548.69
447.533	14548.69
447.641	14548.69
447.749	14548.69
447.856	14548.69
447.964	14548.69
448.072	14548.69
448.179	14548.69
448.287	14548.69
448.395	14548.69
448.502	14548.69
448.61	14548.69
448.718	14548.69
448.825	14548.69
448.933	14548.69
449.04	14548.69
449.148	14548.69
449.256	14548.69
449.363	14548.69
449.471	14548.69
449.578	14548.69
449.686	14548.69
449.793	14548.69
449.901	14548.69
450.008	14548.69
450.116	14548.69
450.223	14548.69
450.331	14548.69
450.438	14548.69
450.546	14548.69
450.653	14548.69
450.76	14548.69
450.868	14548.69
450.975	14548.69
451.083	14548.69
451.19	14548.69
451.297	14548.69
451.405	14548.69
451.512	14548.69
451.619	14548.69
451.727	14548.69
451.834	14548.69
451.941	14548.69
452.049	14548.69
452.156	14548.69
452.263	14548.69
452.371	14548.69
452.478	14548.69
452.585	14548.69
452.692	14548.69
452.8	14548.69
452.907	14548.69
453.014	14548.69
453.121	14548.69
453.229	14548.69
453.336	14548.69
453.443	14548.69
453.55	14548.69
453.657	14548.69
453.765	14548.69
453.872	14548.69
453.979	14548.69
454.086	14548.69
454.193	14548.69
454.3	14548.69
454.407	14548.69
454.514	14548.69
454.621	14548.69
454.729	14548.69
454.836	14548.69
454.943	14548.69
455.05	14548.69
455.157	14548.69
455.264	14548.69
455.371	14548.69
455.478	14548.69
455.585	14548.69
455.692	14548.69
455.799	14548.69
455.906	14548.69
456.013	14548.69
456.12	14548.69
456.227	14548.69
456.334	14548.69
456.44	14548.69
456.547	14548.69
456.654	14548.69
456.761	14548.69
456.868	14548.69
456.975	14548.69
457.082	14548.69
457.189	14548.69
457.296	14548.69
457.402	14548.69
457.509	14548.69
457.616	14548.69
457.723	14548.69
457.83	14548.69
457.936	14548.69
458.043	14548.69
458.15	14548.69
458.257	14548.69
458.363	14548.69
458.47	14548.69
458.577	14548.69
458.684	14548.69
458.79	14548.69
458.897	14548.69
459.004	14548.69
459.11	14548.69
459.217	14548.69
459.324	14548.69
459.43	14548.69
459.537	14548.69
459.644	14548.69
459.75	14548.69
459.857	14548.69
459.964	14548.69
460.07	14548.69
460.177	14548.69
460.283	14548.69
460.39	14548.69
460.496	14548.69
460.603	14548.69
460.71	14548.69
460.816	14548.69
460.923	14548.69
461.029	14548.69
461.136	14548.69
461.242	14548.69
461.349	14548.69
461.455	14548.69
461.562	14548.69
461.668	14548.69
461.774	14548.69
461.881	14548.69
461.987	14548.69
462.094	14548.69
462.2	14548.69
462.307	14548.69
462.413	14548.69
462.519	14548.69
462.626	14548.69
462.732	14548.69
462.838	14548.69
462.945	14548.69
463.051	14548.69
463.157	14548.69
463.264	14548.69
463.37	14548.69
463.476	14548.69
463.583	14548.69
463.689	14548.69
463.795	14548.69
463.901	14548.69
464.008	14548.69
464.114	14548.69
464.22	14548.69
464.326	14548.69
464.433	14548.69
464.539	14548.69
464.645	14548.69
464.751	14548.69
464.857	14548.69
464.963	14548.69
465.07	14548.69
465.176	14548.69
465.282	14548.69
465.388	14548.69
465.494	14548.69
465.6	14548.69
465.706	14548.69
465.812	14548.69
465.918	14548.69
466.024	14548.69
466.131	14548.69
466.237	14548.69
466.343	14548.69
466.449	14548.69
466.555	14548.69
466.661	14548.69
466.767	14548.69
466.873	14548.69
466.979	14548.69
467.085	14548.69
467.191	14548.69
467.296	14548.69
467.402	14548.69
467.508	14548.69
467.614	14548.69
467.72	14548.69
467.826	14548.69
467.932	14548.69
468.038	14548.69
468.144	14548.69
468.25	14548.69
468.355	14548.69
468.461	14548.69
468.567	14548.69
468.673	14548.69
468.779	14548.69
468.885	14548.69
468.99	14548.69
469.096	14548.69
469.202	14548.69
469.308	14548.69
469.413	14548.69
469.519	14548.69
469.625	14548.69
469.731	14548.69
469.836	14548.69
469.942	14548.69
470.048	14548.69
470.153	14548.69
470.259	14548.69
470.365	14548.69
470.47	14548.69
470.576	14548.69
470.682	14548.69
470.787	14548.69
470.893	14548.69
470.999	14548.69
471.104	14548.69
471.21	14548.69
471.315	14548.69
471.421	14548.69
471.527	14548.69
471.632	14548.69
471.738	14548.69
471.843	14548.69
471.949	14548.69
472.054	14548.69
472.16	14548.69
472.265	14548.69
472.371	14548.69
472.476	14548.69
472.582	14548.69
472.687	14548.69
472.793	14548.69
472.898	14548.69
473.003	14548.69
473.109	14548.69
473.214	14548.69
473.32	14548.69
473.425	14548.69
473.53	14548.69
473.636	14548.69
473.741	14548.69
473.847	14548.69
473.952	14548.69
474.057	14548.69
474.163	14548.69
474.268	14548.69
474.373	14548.69
474.478	14548.69
474.584	14548.69
474.689	14548.69
474.794	14548.69
474.9	14548.69
475.005	14548.69
475.11	14548.69
475.215	14548.69
475.321	14548.69
475.426	14548.69
475.531	14548.69
475.636	14548.69
475.741	14548.69
475.846	14548.69
475.952	14548.69
476.057	14548.69
476.162	14548.69
476.267	14548.69
476.372	14548.69
476.477	14548.69
476.582	14548.69
476.687	14548.69
476.793	14548.69
476.898	14548.69
477.003	14548.69
477.108	14548.69
477.213	14548.69
477.318	14548.69
477.423	14548.69
477.528	14548.69
477.633	14548.69
477.738	14548.69
477.843	14548.69
477.948	14548.69
478.053	14548.69
478.158	14548.69
478.263	14548.69
478.368	14548.69
478.473	14548.69
478.578	14548.69
478.682	14548.69
478.787	14548.69
478.892	14548.69
478.997	14548.69
479.102	14548.69
479.207	14548.69
479.312	14548.69
479.417	14548.69
479.521	14548.69
479.626	14548.69
479.731	14548.69
479.836	14548.69
479.941	14548.69
480.045	14548.69
480.15	14548.69
480.255	14548.69
480.36	14548.69
480.465	14548.69
480.569	14548.69
480.674	14548.69
480.779	14548.69
480.883	14548.69
480.988	14548.69
481.093	14548.69
481.197	14548.69
481.302	14548.69
481.407	14548.69
481.511	14548.69
481.616	14548.69
481.721	14548.69
481.825	14548.69
481.93	14548.69
482.035	14548.69
482.139	14548.69
482.244	14548.69
482.348	14548.69
482.453	14548.69
482.557	14548.69
482.662	14548.69
482.767	14548.69
482.871	14548.69
482.976	14548.69
483.08	14548.69
483.185	14548.69
483.289	14548.69
483.394	14548.69
483.498	14548.69
483.603	14548.69
483.707	14548.69
483.811	14548.69
483.916	14548.69
484.02	14548.69
484.125	14548.69
484.229	14548.69
484.333	14548.69
484.438	14548.69
484.542	14548.69
484.647	14548.69
484.751	14548.69
484.855	14548.69
484.96	14548.69
485.064	14548.69
485.168	14548.69
485.273	14548.69
485.377	14548.69
485.481	14548.69
485.585	14548.69
485.69	14548.69
485.794	14548.69
485.898	14548.69
486.002	14548.69
486.107	14548.69
486.211	14548.69
486.315	14548.69
486.419	14548.69
486.524	14548.69
486.628	14548.69
486.732	14548.69
486.836	14548.69
486.94	14548.69
487.044	14548.69
487.148	14548.69
487.253	14548.69
487.357	14548.69
487.461	14548.69
487.565	14548.69
487.669	14548.69
487.773	14548.69
487.877	14548.69
487.981	14548.69
488.085	14548.69
488.189	14548.69
488.293	14548.69
488.397	14548.69
488.501	14548.69
488.605	14548.69
488.709	14548.69
488.813	14548.69
488.917	14548.69
489.021	14548.69
489.125	14548.69
489.229	14548.69
489.333	14548.69
489.437	14548.69
489.541	14548.69
489.645	14548.69
489.749	14548.69
489.853	14548.69
489.956	14548.69
490.06	14548.69
490.164	14548.69
490.268	14548.69
490.372	14548.69
490.476	14548.69
490.579	14548.69
490.683	14548.69
490.787	14548.69
490.891	14548.69
490.995	14548.69
491.098	14548.69
491.202	14548.69
491.306	14548.69
491.41	14548.69
491.513	14548.69
491.617	14548.69
491.721	14548.69
491.824	14548.69
491.928	14548.69
492.032	14548.69
492.136	14548.69
492.239	14548.69
492.343	14548.69
492.446	14548.69
492.55	14548.69
492.654	14548.69
492.757	14548.69
492.861	14548.69
492.965	14548.69
493.068	14548.69
493.172	14548.69
493.275	14548.69
493.379	14548.69
493.482	14548.69
493.586	14548.69
493.689	14548.69
493.793	14548.69
493.896	14548.69
494	14548.69
494.103	14548.69
494.207	14548.69
494.31	14548.69
494.414	14548.69
494.517	14548.69
494.621	14548.69
494.724	14548.69
494.828	14548.69
494.931	14548.69
495.034	14548.69
495.138	14548.69
495.241	14548.69
495.345	14548.69
495.448	14548.69
495.551	14548.69
495.655	14548.69
495.758	14548.69
495.861	14548.69
495.965	14548.69
496.068	14548.69
496.171	14548.69
496.274	14548.69
496.378	14548.69
496.481	14548.69
496.584	14548.69
496.687	14548.69
496.791	14548.69
496.894	14548.69
496.997	14548.69
497.1	14548.69
497.204	14548.69
497.307	14548.69
497.41	14548.69
497.513	14548.69
497.616	14548.69
497.719	14548.69
497.823	14548.69
497.926	14548.69
498.029	14548.69
498.132	14548.69
498.235	14548.69
498.338	14548.69
498.441	14548.69
498.544	14548.69
498.647	14548.69
498.75	14548.69
498.853	14548.69
498.956	14548.69
499.059	14548.69
499.163	14548.69
499.266	14548.69
499.369	14548.69
499.471	14548.69
499.574	14548.69
499.677	14548.69
499.78	14548.69
499.883	14548.69
499.986	14548.69
500.089	14548.69
500.192	14548.69
500.295	14548.69
500.398	14548.69
500.501	14548.69
500.604	14548.69
500.707	14548.69
500.809	14548.69
500.912	14548.69
501.015	14548.69
501.118	14548.69
501.221	14548.69
501.324	14548.69
501.426	14548.69
501.529	14548.69
501.632	14548.69
501.735	14548.69
501.837	14548.69
501.94	14548.69
502.043	14548.69
502.146	14548.69
502.248	14548.69
502.351	14548.69
502.454	14548.69
502.557	14548.69
502.659	14548.69
502.762	14548.69
502.865	14548.69
502.967	14548.69
503.07	14548.69
503.173	14548.69
503.275	14548.69
503.378	14548.69
503.48	14548.69
503.583	14548.69
503.686	14548.69
503.788	14548.69
503.891	14548.69
503.993	14548.69
504.096	14548.69
504.198	14548.69
504.301	14548.69
504.403	14548.69
504.506	14548.69
504.608	14548.69
504.711	14548.69
504.813	14548.69
504.916	14548.69
505.018	14548.69
505.121	14548.69
505.223	14548.69
505.326	14548.69
505.428	14548.69
505.531	14548.69
505.633	14548.69
505.735	14548.69
505.838	14548.69
505.94	14548.69
506.042	14548.69
506.145	14548.69
506.247	14548.69
506.35	14548.69
506.452	14548.69
506.554	14548.69
506.656	14548.69
506.759	14548.69
506.861	14548.69
506.963	14548.69
507.066	14548.69
507.168	14548.69
507.27	14548.69
507.372	14548.69
507.475	14548.69
507.577	14548.69
507.679	14548.69
507.781	14548.69
507.883	14548.69
507.986	14548.69
508.088	14548.69
508.19	14548.69
508.292	14548.69
508.394	14548.69
508.496	14548.69
508.598	14548.69
508.701	14548.69
508.803	14548.69
508.905	14548.69
509.007	14548.69
509.109	14548.69
509.211	14548.69
509.313	14548.69
509.415	14548.69
509.517	14548.69
509.619	14548.69
509.721	14548.69
509.823	14548.69
509.925	14548.69
510.027	14548.69
510.129	14548.69
510.231	14548.69
510.333	14548.69
510.435	14548.69
510.537	14548.69
510.639	14548.69
510.741	14548.69
510.843	14548.69
510.945	14548.69
511.047	14548.69
511.148	14548.69
511.25	14548.69
511.352	14548.69
511.454	14548.69
511.556	14548.69
511.658	14548.69
511.76	14548.69
511.861	14548.69
511.963	14548.69
512.065	14548.69
512.167	14548.69
512.268	14548.69
512.37	14548.69
512.472	14548.69
512.574	14548.69
512.676	14548.69
512.777	14548.69
512.879	14548.69
512.981	14548.69
513.082	14548.69
513.184	14548.69
513.286	14548.69
513.387	14548.69
513.489	14548.69
513.591	14548.69
513.692	14548.69
513.794	14548.69
513.896	14548.69
513.997	14548.69
514.099	14548.69
514.2	14548.69
514.302	14548.69
514.404	14548.69
514.505	14548.69
514.607	14548.69
514.708	14548.69
514.81	14548.69
514.911	14548.69
515.013	14548.69
515.114	14548.69
515.216	14548.69
515.317	14548.69
515.419	14548.69
515.52	14548.69
515.622	14548.69
515.723	14548.69
515.825	14548.69
515.926	14548.69
516.027	14548.69
516.129	14548.69
516.23	14548.69
516.332	14548.69
516.433	14548.69
516.534	14548.69
516.636	14548.69
516.737	14548.69
516.838	14548.69
516.94	14548.69
517.041	14548.69
517.142	14548.69
517.244	14548.69
517.345	14548.69
517.446	14548.69
517.547	14548.69
517.649	14548.69
517.75	14548.69
517.851	14548.69
517.952	14548.69
518.054	14548.69
518.155	14548.69
518.256	14548.69
518.357	14548.69
518.458	14548.69
518.56	14548.69
518.661	14548.69
518.762	14548.69
518.863	14548.69
518.964	14548.69
519.065	14548.69
519.166	14548.69
519.268	14548.69
519.369	14548.69
519.47	14548.69
519.571	14548.69
519.672	14548.69
519.773	14548.69
519.874	14548.69
519.975	14548.69
520.076	14548.69
520.177	14548.69
520.278	14548.69
520.379	14548.69
520.48	14548.69
520.581	14548.69
520.682	14548.69
520.783	14548.69
520.884	14548.69
520.985	14548.69
521.086	14548.69
521.187	14548.69
521.288	14548.69
521.389	14548.69
521.489	14548.69
521.59	14548.69
521.691	14548.69
521.792	14548.69
521.893	14548.69
521.994	14548.69
522.095	14548.69
522.195	14548.69
522.296	14548.69
522.397	14548.69
522.498	14548.69
522.599	14548.69
522.699	14548.69
522.8	14548.69
522.901	14548.69
523.002	14548.69
523.102	14548.69
523.203	14548.69
523.304	14548.69
523.405	14548.69
523.505	14548.69
523.606	14548.69
523.707	14548.69
523.807	14548.69
523.908	14548.69
524.009	14548.69
524.109	14548.69
524.21	14548.69
524.31	14548.69
524.411	14548.69
524.512	14548.69
524.612	14548.69
524.713	14548.69
524.813	14548.69
524.914	14548.69
525.014	14548.69
525.115	14548.69
525.216	14548.69
525.316	14548.69
525.417	14548.69
525.517	14548.69
525.618	14548.69
525.718	14548.69
525.819	14548.69
525.919	14548.69
526.019	14548.69
526.12	14548.69
526.22	14548.69
526.321	14548.69
526.421	14548.69
526.522	14548.69
526.622	14548.69
526.722	14548.69
526.823	14548.69
526.923	14548.69
527.023	14548.69
527.124	14548.69
527.224	14548.69
527.324	14548.69
527.425	14548.69
527.525	14548.69
527.625	14548.69
527.726	14548.69
527.826	14548.69
527.926	14548.69
528.026	14548.69
528.127	14548.69
528.227	14548.69
528.327	14548.69
528.427	14548.69
528.528	14548.69
528.628	14548.69
528.728	14548.69
528.828	14548.69
528.928	14548.69
529.029	14548.69
529.129	14548.69
529.229	14548.69
529.329	14548.69
529.429	14548.69
529.529	14548.69
529.629	14548.69
529.729	14548.69
529.829	14548.69
529.93	14548.69
530.03	14548.69
530.13	14548.69
530.23	14548.69
530.33	14548.69
530.43	14548.69
530.53	14548.69
530.63	14548.69
530.73	14548.69
530.83	14548.69
530.93	14548.69
531.03	14548.69
531.13	14548.69
531.23	14548.69
531.33	14548.69
531.429	14548.69
531.529	14548.69
531.629	14548.69
531.729	14548.69
531.829	14548.69
531.929	14548.69
532.029	14548.69
532.129	14548.69
532.229	14548.69
532.328	14548.69
532.428	14548.69
532.528	14548.69
532.628	14548.69
532.728	14548.69
532.827	14548.69
532.927	14548.69
533.027	14548.69
533.127	14548.69
533.227	14548.69
533.326	14548.69
533.426	14548.69
533.526	14548.69
533.625	14548.69
533.725	14548.69
533.825	14548.69
533.924	14548.69
534.024	14548.69
534.124	14548.69
534.223	14548.69
534.323	14548.69
534.423	14548.69
534.522	14548.69
534.622	14548.69
534.722	14548.69
534.821	14548.69
534.921	14548.69
535.02	14548.69
535.12	14548.69
535.219	14548.69
535.319	14548.69
535.419	14548.69
535.518	14548.69
535.618	14548.69
535.717	14548.69
535.817	14406.69
535.916	14170.69
536.016	14288.69
536.115	14189.69
536.215	14261.69
536.314	14178.69
536.413	14060.69
536.513	13966.69
536.612	14213.69
536.712	13737.69
536.811	13822.69
536.91	13747.69
537.01	13608.69
537.109	13647.69
537.209	13854.69
537.308	13704.69
537.407	13708.69
537.507	13556.69
537.606	13629.69
537.705	13599.69
537.805	13389.69
537.904	13393.69
538.003	13252.69
538.102	13387.69
538.202	13290.69
538.301	13290.69
538.4	13395.69
538.499	13300.69
538.599	13149.69
538.698	13322.69
538.797	13073.69
538.896	13124.69
538.995	12992.69
539.095	13042.69
539.194	13173.69
539.293	12985.69
539.392	12871.69
539.491	12770.69
539.59	12739.69
539.689	12846.69
539.789	12753.69
539.888	12493.69
539.987	12521.69
540.086	12519.69
540.185	12761.69
540.284	12555.69
540.383	12441.69
540.482	12531.69
540.581	12606.69
540.68	12496.69
540.779	12589.69
540.878	12284.69
540.977	12380.69
541.076	12370.69
541.175	12205.69
541.274	12408.69
541.373	12225.69
541.472	12317.69
541.571	12051.69
541.67	13640.69
541.769	12356.69
541.868	12171.69
541.966	12165.69
542.065	12198.69
542.164	12015.69
542.263	12024.69
542.362	11936.69
542.461	12103.69
542.56	11936.69
542.658	11922.69
542.757	11739.69
542.856	11828.69
542.955	11629.69
543.054	11661.69
543.152	12003.69
543.251	11771.69
543.35	11989.69
543.449	11907.69
543.547	11761.69
543.646	11787.69
543.745	11857.69
543.843	11763.69
543.942	11842.69
544.041	11752.69
544.14	11800.69
544.238	11690.69
544.337	12094.69
544.436	11957.69
544.534	11962.69
544.633	11967.69
544.731	12016.69
544.83	11988.69
544.929	11876.69
545.027	11950.69
545.126	11925.69
545.224	11969.69
545.323	12044.69
545.421	12111.69
545.52	12086.69
545.619	11969.69
545.717	11816.69
545.816	11949.69
545.914	12003.69
546.013	12132.69
546.111	12141.69
546.209	11796.69
546.308	11721.69
546.406	11761.69
546.505	11899.69
546.603	11799.69
546.702	11745.69
546.8	11714.69
546.899	11791.69
546.997	11807.69
547.095	11726.69
547.194	11847.69
547.292	11761.69
547.39	11883.69
547.489	11767.69
547.587	12050.69
547.685	11713.69
547.784	12103.69
547.882	11952.69
547.98	11705.69
548.079	11931.69
548.177	11847.69
548.275	11737.69
548.373	12019.69
548.472	11814.69
548.57	11848.69
548.668	11997.69
548.766	11774.69
548.864	11890.69
548.963	11898.69
549.061	12055.69
549.159	11781.69
549.257	12036.69
549.355	12017.69
549.454	12125.69
549.552	12033.69
549.65	11991.69
549.748	12122.69
549.846	11985.69
549.944	11814.69
550.042	11905.69
550.14	11759.69
550.238	11801.69
550.336	11727.69
550.434	11562.69
550.532	11538.69
550.631	11632.69
550.729	11834.69
550.827	11537.69
550.925	11529.69
551.023	11651.69
551.121	11496.69
551.218	11673.69
551.316	11547.69
551.414	11562.69
551.512	11579.69
551.61	11567.69
551.708	11735.69
551.806	11859.69
551.904	11851.69
552.002	11975.69
552.1	11914.69
552.198	12103.69
552.296	12399.69
552.393	12406.69
552.491	12638.69
552.589	12766.69
552.687	12716.69
552.785	12797.69
552.882	13045.69
552.98	13043.69
553.078	13063.69
553.176	13039.69
553.274	13076.69
553.371	12816.69
553.469	12969.69
553.567	12857.69
553.665	12680.69
553.762	13025.69
553.86	12632.69
553.958	12391.69
554.055	12216.69
554.153	12208.69
554.251	12063.69
554.348	12074.69
554.446	11947.69
554.544	12024.69
554.641	12081.69
554.739	11831.69
554.837	11866.69
554.934	11713.69
555.032	11587.69
555.129	11632.69
555.227	11685.69
555.324	14548.69
555.422	11638.69
555.519	11300.69
555.617	11174.69
555.715	11017.69
555.812	11597.69
555.91	10842.69
556.007	10890.69
556.105	10910.69
556.202	10967.69
556.299	10798.69
556.397	10952.69
556.494	10793.69
556.592	10803.69
556.689	10941.69
556.787	10758.69
556.884	10650.69
556.981	10824.69
557.079	10801.69
557.176	10803.69
557.273	10739.69
557.371	10920.69
557.468	10643.69
557.566	10738.69
557.663	10707.69
557.76	10614.69
557.857	10743.69
557.955	10668.69
558.052	10764.69
558.149	10715.69
558.247	10763.69
558.344	10690.69
558.441	10608.69
558.538	10526.69
558.636	10726.69
558.733	10789.69
558.83	10839.69
558.927	10808.69
559.024	10658.69
559.122	10545.69
559.219	10692.69
559.316	10735.69
559.413	10845.69
559.51	10756.69
559.607	10771.69
559.704	10699.69
559.801	10943.69
559.899	10745.69
559.996	11108.69
560.093	10848.69
560.19	10787.69
560.287	10685.69
560.384	10942.69
560.481	10845.69
560.578	10604.69
560.675	10683.69
560.772	10828.69
560.869	10896.69
560.966	10987.69
561.063	10828.69
561.16	10988.69
561.257	10907.69
561.354	10875.69
561.451	11024.69
561.548	10861.69
561.645	11107.69
561.742	10923.69
561.838	11026.69
561.935	10917.69
562.032	11003.69
562.129	11092.69
562.226	11083.69
562.323	10958.69
562.42	11300.69
562.516	11222.69
562.613	11095.69
562.71	11160.69
562.807	12035.69
562.904	11265.69
563	11289.69
563.097	11406.69
563.194	11389.69
563.291	11399.69
563.387	11511.69
563.484	11419.69
563.581	11463.69
563.678	11696.69
563.774	12022.69
563.871	11682.69
563.968	11801.69
564.064	11763.69
564.161	11856.69
564.258	12047.69
564.354	12155.69
564.451	12145.69
564.548	12222.69
564.644	12318.69
564.741	12418.69
564.837	12479.69
564.934	12830.69
565.031	12841.69
565.127	13005.69
565.224	13322.69
565.32	13482.69
565.417	13606.69
565.513	13830.69
565.61	14005.69
565.706	14313.69
565.803	14548.69
565.899	14548.69
565.996	14548.69
566.092	14548.69
566.189	14548.69
566.285	14548.69
566.382	14548.69
566.478	14548.69
566.574	14548.69
566.671	14548.69
566.767	14548.69
566.864	14548.69
566.96	14548.69
567.056	14548.69
567.153	14548.69
567.249	14548.69
567.345	14548.69
567.442	14548.69
567.538	14548.69
567.634	14548.69
567.731	14548.69
567.827	14548.69
567.923	14548.69
568.019	14548.69
568.116	14548.69
568.212	14548.69
568.308	14548.69
568.404	14548.69
568.501	14548.69
568.597	14548.69
568.693	14548.69
568.789	14548.69
568.885	14548.69
568.982	14544.69
569.078	13919.69
569.174	13775.69
569.27	13421.69
569.366	13191.69
569.462	12983.69
569.558	12827.69
569.655	12611.69
569.751	12549.69
569.847	12519.69
569.943	12352.69
570.039	12222.69
570.135	12505.69
570.231	12092.69
570.327	12226.69
570.423	12116.69
570.519	12187.69
570.615	12003.69
570.711	12156.69
570.807	12266.69
570.903	12115.69
570.999	11925.69
571.095	11900.69
571.191	11771.69
571.287	11388.69
571.383	11357.69
571.479	11262.69
571.574	11056.69
571.67	10902.69
571.766	10993.69
571.862	10550.69
571.958	10595.69
572.054	10711.69
572.15	10278.69
572.246	10175.69
572.341	10374.69
572.437	10095.69
572.533	10149.69
572.629	10028.69
572.725	10031.69
572.82	9839.69
572.916	10047.69
573.012	9795.69
573.108	9844.69
573.203	9700.69
573.299	9612.69
573.395	9456.69
573.49	9452.69
573.586	9504.69
573.682	9448.69
573.778	9695.69
573.873	9377.69
573.969	9438.69
574.065	9274.69
574.16	9314.69
574.256	9354.69
574.351	9363.69
574.447	9362.69
574.543	9265.69
574.638	9180.69
574.734	9092.69
574.829	9433.69
574.925	9114.69
575.02	8953.69
575.116	8914.69
575.212	8985.69
575.307	9036.69
575.403	8811.69
575.498	8880.69
575.594	8707.69
575.689	8875.69
575.784	8673.69
575.88	8641.69
575.975	8642.69
576.071	8689.69
576.166	8362.69
576.262	8511.69
576.357	8475.69
576.452	8740.69
576.548	8418.69
576.643	8341.69
576.739	8506.69
576.834	8195.69
576.929	8433.69
577.025	9000.69
577.12	8094.69
577.215	8047.69
577.311	8258.69
577.406	8184.69
577.501	8205.69
577.597	7821.69
577.692	8016.69
577.787	7945.69
577.882	7878.69
577.978	7958.69
578.073	7831.69
578.168	7649.69
578.263	7631.69
578.358	7539.69
578.454	7519.69
578.549	7619.69
578.644	7438.69
578.739	7500.69
578.834	7412.69
578.929	7387.69
579.025	7447.69
579.12	7404.69
579.215	7659.69
579.31	7447.69
579.405	7293.69
579.5	7321.69
579.595	7224.69
579.69	7167.69
579.785	7142.69
579.88	7143.69
579.975	7041.69
580.07	7115.69
580.165	7082.69
580.26	7140.69
580.355	6913.69
580.45	7039.69
580.545	6799.69
580.64	6867.69
580.735	6969.69
580.83	6814.69
580.925	6663.69
581.02	6803.69
581.115	6781.69
581.21	6590.69
581.305	6735.69
581.4	6705.69
581.495	6553.69
581.589	6532.69
581.684	6601.69
581.779	6654.69
581.874	6518.69
581.969	6661.69
582.064	6433.69
582.158	6388.69
582.253	6498.69
582.348	6454.69
582.443	6406.69
582.537	6378.69
582.632	6605.69
582.727	6263.69
582.822	6314.69
582.916	6351.69
583.011	6199.69
583.106	6398.69
583.201	6301.69
583.295	6306.69
583.39	6142.69
583.485	6153.69
583.579	8151.69
583.674	6213.69
583.769	6346.69
583.863	6120.69
583.958	6044.69
584.052	6047.69
584.147	6041.69
584.242	5984.69
584.336	5998.69
584.431	6197.69
584.525	5887.69
584.62	6209.69
584.714	6002.69
584.809	5872.69
584.903	5905.69
584.998	6018.69
585.092	5791.69
585.187	5847.69
585.281	5757.69
585.376	5803.69
585.47	5853.69
585.565	5755.69
585.659	5826.69
585.754	5726.69
585.848	5790.69
585.942	5758.69
586.037	5630.69
586.131	8083.69
586.226	5886.69
586.32	5802.69
586.414	5479.69
586.509	5711.69
586.603	5779.69
586.697	5565.69
586.792	5558.69
586.886	5590.69
586.98	5719.69
587.075	5487.69
587.169	5487.69
587.263	5630.69
587.357	5418.69
587.452	5383.69
587.546	5489.69
587.64	5300.69
587.734	5484.69
587.829	5502.69
587.923	5359.69
588.017	5440.69
588.111	5354.69
588.205	5630.69
588.3	5487.69
588.394	5515.69
588.488	5491.69
588.582	5673.69
588.676	5881.69
588.77	7265.69
588.864	11816.69
588.958	12531.69
589.052	10685.69
589.147	7883.69
589.241	6520.69
589.335	6485.69
589.429	8616.69
589.523	10264.69
589.617	9532.69
589.711	7465.69
589.805	6225.69
589.899	5799.69
589.993	5421.69
590.087	5383.69
590.181	5383.69
590.275	5476.69
590.369	5314.69
590.462	5215.69
590.556	5326.69
590.65	5249.69
590.744	5293.69
590.838	5248.69
590.932	5300.69
591.026	5352.69
591.12	5487.69
591.214	5374.69
591.307	5334.69
591.401	5361.69
591.495	5522.69
591.589	5266.69
591.683	5437.69
591.777	5543.69
591.87	5762.69
591.964	5544.69
592.058	5687.69
592.152	5617.69
592.245	5570.69
592.339	5936.69
592.433	5960.69
592.527	5946.69
592.62	5884.69
592.714	6035.69
592.808	6056.69
592.901	6214.69
592.995	6203.69
593.089	6387.69
593.182	6318.69
593.276	6359.69
593.37	6145.69
593.463	6086.69
593.557	6168.69
593.65	6243.69
593.744	6183.69
593.837	6481.69
593.931	6262.69
594.025	9552.69
594.118	6528.69
594.212	6123.69
594.305	6010.69
594.399	6039.69
594.492	6407.69
594.586	5802.69
594.679	5693.69
594.773	5612.69
594.866	5600.69
594.96	5508.69
595.053	5290.69
595.146	5342.69
595.24	5229.69
595.333	5111.69
595.427	5055.69
595.52	4896.69
595.614	5068.69
595.707	4912.69
595.8	4845.69
595.894	4805.69
595.987	4818.69
596.08	4699.69
596.174	5034.69
596.267	4676.69
596.36	4669.69
596.454	4653.69
596.547	4625.69
596.64	4510.69
596.733	4391.69
596.827	4408.69
596.92	4411.69
597.013	4285.69
597.106	4192.69
597.2	4254.69
597.293	4206.69
597.386	4355.69
597.479	4326.69
597.572	4328.69
597.666	4064.69
597.759	4038.69
597.852	4218.69
597.945	4063.69
598.038	4023.69
598.131	4107.69
598.224	4001.69
598.317	4072.69
598.411	4080.69
598.504	4030.69
598.597	4082.69
598.69	4030.69
598.783	4060.69
598.876	4000.69
598.969	3914.69
599.062	3902.69
599.155	3957.69
599.248	3887.69
599.341	3957.69
599.434	3886.69
599.527	3940.69
599.62	3843.69
599.713	3937.69
599.806	3961.69
599.899	3996.69
599.991	3940.69
600.084	4060.69
600.177	3883.69
600.27	3819.69
600.363	3993.69
600.456	3862.69
600.549	3958.69
600.642	3745.69
600.734	3803.69
600.827	3801.69
600.92	3903.69
601.013	3763.69
601.106	3851.69
601.199	3772.69
601.291	3772.69
601.384	3807.69
601.477	4022.69
601.57	3846.69
601.662	3672.69
601.755	3735.69
601.848	3716.69
601.94	3652.69
602.033	3816.69
602.126	3738.69
602.219	3619.69
602.311	3823.69
602.404	3736.69
602.497	3619.69
602.589	3657.69
602.682	3808.69
602.774	3665.69
602.867	3670.69
602.96	3644.69
603.052	3614.69
603.145	3569.69
603.237	3656.69
603.33	3639.69
603.422	3703.69
603.515	3607.69
603.608	3642.69
603.7	3566.69
603.793	3596.69
603.885	3649.69
603.978	3578.69
604.07	3537.69
604.163	3638.69
604.255	3576.69
604.347	3492.69
604.44	3543.69
604.532	3583.69
604.625	3496.69
604.717	3527.69
604.81	3596.69
604.902	3580.69
604.994	3442.69
605.087	3515.69
605.179	3451.69
605.271	3472.69
605.364	3528.69
605.456	3536.69
605.548	3533.69
605.641	3478.69
605.733	3424.69
605.825	3548.69
605.918	3382.69
606.01	3638.69
606.102	3906.69
606.194	3495.69
606.287	3594.69
606.379	3371.69
606.471	3400.69
606.563	3539.69
606.655	3494.69
606.748	3564.69
606.84	3372.69
606.932	3474.69
607.024	3330.69
607.116	3360.69
607.208	3317.69
607.301	3449.69
607.393	3419.69
607.485	3433.69
607.577	3341.69
607.669	3443.69
607.761	3504.69
607.853	3620.69
607.945	3275.69
608.037	3281.69
608.129	3312.69
608.221	3355.69
608.313	3327.69
608.405	3388.69
608.497	3320.69
608.589	3287.69
608.681	3370.69
608.773	3447.69
608.865	3383.69
608.957	3316.69
609.049	3277.69
609.141	3437.69
609.233	3328.69
609.325	3320.69
609.417	3307.69
609.509	3423.69
609.601	3547.69
609.693	3393.69
609.784	3293.69
609.876	3310.69
609.968	3394.69
610.06	5546.69
610.152	3608.69
610.244	3530.69
610.335	3299.69
610.427	3266.69
610.519	3215.69
610.611	3164.69
610.702	3143.69
610.794	3164.69
610.886	3181.69
610.978	3050.69
611.069	3654.69
611.161	3105.69
611.253	3091.69
611.344	3039.69
611.436	2867.69
611.528	2893.69
611.62	2813.69
611.711	2771.69
611.803	2767.69
611.894	2778.69
611.986	2696.69
612.078	2721.69
612.169	2701.69
612.261	2630.69
612.352	2501.69
612.444	2557.69
612.536	2606.69
612.627	2510.69
612.719	2413.69
612.81	2407.69
612.902	2380.69
612.993	2372.69
613.085	2373.69
613.176	2209.69
613.268	2214.69
613.359	2154.69
613.451	2211.69
613.542	2160.69
613.634	2062.69
613.725	2173.69
613.816	2181.69
613.908	2010.69
613.999	1912.69
614.091	1850.69
614.182	1778.69
614.273	1911.69
614.365	1801.69
614.456	1688.69
614.547	1709.69
614.639	1688.69
614.73	1635.69
614.821	1687.69
614.913	1513.69
615.004	1427.69
615.095	1475.69
615.187	1413.69
