Data from 14g_HRC06701__29__212.txt Node

Date: Thu Apr 18 01:58:23 CDT 2024
User: Estudiantes 2
Spectrometer: HR+C0670
Trigger mode: 4
Integration Time (sec): 1.000000E0
Scans to average: 1
Electric dark correction enabled: true
Nonlinearity correction enabled: false
Boxcar width: 0
XAxis mode: Wavelengths
Number of Pixels in Spectrum: 2048
>>>>>Begin Spectral Data<<<<<
407.81	-132.25
407.921	-132.25
408.032	-132.25
408.143	-124.25
408.254	-118.25
408.365	36.75
408.476	255.75
408.587	4.75
408.699	-0.25
408.81	-49.25
408.921	-41.25
409.032	-5.25
409.143	35.75
409.254	-7.25
409.365	101.75
409.476	-32.25
409.587	-6.25
409.698	81.75
409.809	58.75
409.92	-34.25
410.031	5.75
410.142	77.75
410.253	8.75
410.364	16.75
410.475	938.75
410.585	4307.75
410.696	4649.75
410.807	4601.75
410.918	4512.75
411.029	4640.75
411.14	4755.75
411.251	4714.75
411.362	4636.75
411.472	4725.75
411.583	4785.75
411.694	4893.75
411.805	4755.75
411.916	4969.75
412.026	4906.75
412.137	4896.75
412.248	4860.75
412.359	4852.75
412.47	4629.75
412.58	4685.75
412.691	4708.75
412.802	4707.75
412.912	4690.75
413.023	4747.75
413.134	4663.75
413.245	4658.75
413.355	4662.75
413.466	4634.75
413.577	4582.75
413.687	4805.75
413.798	4562.75
413.909	4654.75
414.019	4823.75
414.13	4791.75
414.24	4745.75
414.351	4926.75
414.462	5069.75
414.572	4831.75
414.683	4815.75
414.793	4797.75
414.904	5050.75
415.014	4692.75
415.125	4729.75
415.235	4731.75
415.346	4834.75
415.456	4898.75
415.567	4671.75
415.677	4678.75
415.788	4820.75
415.898	4678.75
416.009	4609.75
416.119	4721.75
416.23	4773.75
416.34	4522.75
416.45	4684.75
416.561	5652.75
416.671	4780.75
416.782	4612.75
416.892	4791.75
417.002	4751.75
417.113	4970.75
417.223	4870.75
417.333	4882.75
417.444	4886.75
417.554	4978.75
417.664	5062.75
417.775	4861.75
417.885	5006.75
417.995	5043.75
418.106	5230.75
418.216	5162.75
418.326	5312.75
418.436	5308.75
418.547	5315.75
418.657	5383.75
418.767	5492.75
418.877	5461.75
418.987	5426.75
419.098	5470.75
419.208	5444.75
419.318	5453.75
419.428	5637.75
419.538	5467.75
419.648	5524.75
419.759	5498.75
419.869	5436.75
419.979	5487.75
420.089	5559.75
420.199	5567.75
420.309	5372.75
420.419	5474.75
420.529	5559.75
420.639	6037.75
420.749	5591.75
420.859	5669.75
420.969	5685.75
421.079	5917.75
421.189	5642.75
421.299	5486.75
421.409	5681.75
421.519	5808.75
421.629	5815.75
421.739	5731.75
421.849	5953.75
421.959	5844.75
422.069	5869.75
422.179	5841.75
422.289	5974.75
422.399	6027.75
422.509	6149.75
422.619	8854.75
422.729	6401.75
422.838	6165.75
422.948	6334.75
423.058	6292.75
423.168	6391.75
423.278	6514.75
423.388	6438.75
423.498	6687.75
423.607	6662.75
423.717	6919.75
423.827	6987.75
423.937	6819.75
424.046	6757.75
424.156	6948.75
424.266	6731.75
424.376	7123.75
424.485	6956.75
424.595	6911.75
424.705	6917.75
424.815	6982.75
424.924	7418.75
425.034	7019.75
425.144	6991.75
425.253	6981.75
425.363	7139.75
425.473	7252.75
425.582	6996.75
425.692	7055.75
425.801	7125.75
425.911	7246.75
426.021	7273.75
426.13	7424.75
426.24	7463.75
426.349	7354.75
426.459	7307.75
426.568	7271.75
426.678	7423.75
426.787	7504.75
426.897	7455.75
427.006	7465.75
427.116	7563.75
427.225	7627.75
427.335	7704.75
427.444	7606.75
427.554	7524.75
427.663	7624.75
427.773	7779.75
427.882	7907.75
427.992	7756.75
428.101	7781.75
428.21	7859.75
428.32	8047.75
428.429	7800.75
428.539	8189.75
428.648	8004.75
428.757	8002.75
428.867	8025.75
428.976	8337.75
429.085	8144.75
429.195	8224.75
429.304	8215.75
429.413	8279.75
429.523	8392.75
429.632	8316.75
429.741	8341.75
429.85	8250.75
429.96	8437.75
430.069	8482.75
430.178	8411.75
430.287	8765.75
430.397	8562.75
430.506	8611.75
430.615	8646.75
430.724	8801.75
430.833	8656.75
430.943	8775.75
431.052	8795.75
431.161	9041.75
431.27	9063.75
431.379	9098.75
431.488	9713.75
431.597	9453.75
431.706	9317.75
431.816	9356.75
431.925	9465.75
432.034	9324.75
432.143	9443.75
432.252	9341.75
432.361	9344.75
432.47	9367.75
432.579	9269.75
432.688	9251.75
432.797	9341.75
432.906	9331.75
433.015	9404.75
433.124	9632.75
433.233	9540.75
433.342	9307.75
433.451	9439.75
433.56	9445.75
433.669	9511.75
433.778	9389.75
433.886	9607.75
433.995	9812.75
434.104	9950.75
434.213	9905.75
434.322	10035.75
434.431	10316.75
434.54	10452.75
434.649	10670.75
434.757	10715.75
434.866	10404.75
434.975	10508.75
435.084	10224.75
435.193	9995.75
435.301	10010.75
435.41	10149.75
435.519	9901.75
435.628	9357.75
435.737	9146.75
435.845	9108.75
435.954	9057.75
436.063	9029.75
436.171	9062.75
436.28	9002.75
436.389	9229.75
436.498	9029.75
436.606	9010.75
436.715	9128.75
436.823	8918.75
436.932	8643.75
437.041	8564.75
437.149	8666.75
437.258	8484.75
437.367	8260.75
437.475	8432.75
437.584	8686.75
437.692	8195.75
437.801	9810.75
437.91	8435.75
438.018	8201.75
438.127	8002.75
438.235	8344.75
438.344	8237.75
438.452	8198.75
438.561	8156.75
438.669	8082.75
438.778	7949.75
438.886	8182.75
438.995	7993.75
439.103	8116.75
439.212	8190.75
439.32	8339.75
439.428	8118.75
439.537	8299.75
439.645	8419.75
439.754	8409.75
439.862	8102.75
439.97	8275.75
440.079	8305.75
440.187	8244.75
440.295	8590.75
440.404	8385.75
440.512	8526.75
440.62	8537.75
440.729	8626.75
440.837	8783.75
440.945	9475.75
441.054	9063.75
441.162	9029.75
441.27	9274.75
441.378	9429.75
441.487	9365.75
441.595	9901.75
441.703	9539.75
441.811	9257.75
441.92	9229.75
442.028	8907.75
442.136	9117.75
442.244	9011.75
442.352	9126.75
442.461	8921.75
442.569	8815.75
442.677	8941.75
442.785	9133.75
442.893	8959.75
443.001	8932.75
443.109	8947.75
443.217	8934.75
443.325	8939.75
443.434	9817.75
443.542	9440.75
443.65	9259.75
443.758	9463.75
443.866	9543.75
443.974	9930.75
444.082	9690.75
444.19	10282.75
444.298	10378.75
444.406	10634.75
444.514	10841.75
444.622	10838.75
444.73	10769.75
444.838	10610.75
444.946	10607.75
445.054	9977.75
445.161	10035.75
445.269	9747.75
445.377	9660.75
445.485	9603.75
445.593	9518.75
445.701	9401.75
445.809	9325.75
445.917	9296.75
446.025	9114.75
446.132	9240.75
446.24	9154.75
446.348	9216.75
446.456	9060.75
446.564	9013.75
446.671	9124.75
446.779	8923.75
446.887	8845.75
446.995	8822.75
447.102	8870.75
447.21	8785.75
447.318	8758.75
447.426	8649.75
447.533	9116.75
447.641	10074.75
447.749	8913.75
447.856	8804.75
447.964	8750.75
448.072	8903.75
448.179	8566.75
448.287	8724.75
448.395	8894.75
448.502	8608.75
448.61	8869.75
448.718	8855.75
448.825	8782.75
448.933	8745.75
449.04	8761.75
449.148	8909.75
449.256	8927.75
449.363	8899.75
449.471	9086.75
449.578	9163.75
449.686	8994.75
449.793	9449.75
449.901	9179.75
450.008	9291.75
450.116	9458.75
450.223	9424.75
450.331	9712.75
450.438	9745.75
450.546	9712.75
450.653	9862.75
450.76	10059.75
450.868	9976.75
450.975	10283.75
451.083	10144.75
451.19	10190.75
451.297	10132.75
451.405	10128.75
451.512	10131.75
451.619	10289.75
451.727	10330.75
451.834	10122.75
451.941	10235.75
452.049	10288.75
452.156	10532.75
452.263	10458.75
452.371	10503.75
452.478	10366.75
452.585	10729.75
452.692	10480.75
452.8	10528.75
452.907	10913.75
453.014	10676.75
453.121	10736.75
453.229	10806.75
453.336	10844.75
453.443	10930.75
453.55	10942.75
453.657	10760.75
453.765	11164.75
453.872	10955.75
453.979	11172.75
454.086	11203.75
454.193	11157.75
454.3	11119.75
454.407	11180.75
454.514	11466.75
454.621	11156.75
454.729	11262.75
454.836	11222.75
454.943	11505.75
455.05	11387.75
455.157	11565.75
455.264	11419.75
455.371	11495.75
455.478	11669.75
455.585	11853.75
455.692	11887.75
455.799	12059.75
455.906	11911.75
456.013	11821.75
456.12	11869.75
456.227	11878.75
456.334	12172.75
456.44	12415.75
456.547	12138.75
456.654	12224.75
456.761	12397.75
456.868	12374.75
456.975	12443.75
457.082	12445.75
457.189	12383.75
457.296	12464.75
457.402	12654.75
457.509	12491.75
457.616	12861.75
457.723	13115.75
457.83	13059.75
457.936	13152.75
458.043	13469.75
458.15	13345.75
458.257	13583.75
458.363	13845.75
458.47	14142.75
458.577	14176.75
458.684	14362.75
458.79	14551.75
458.897	14551.75
459.004	14551.75
459.11	14551.75
459.217	14551.75
459.324	14551.75
459.43	14551.75
459.537	14551.75
459.644	14551.75
459.75	14551.75
459.857	14551.75
459.964	14551.75
460.07	14551.75
460.177	14551.75
460.283	14551.75
460.39	14551.75
460.496	14551.75
460.603	14551.75
460.71	14551.75
460.816	14551.75
460.923	14551.75
461.029	14551.75
461.136	14551.75
461.242	14551.75
461.349	14551.75
461.455	14551.75
461.562	14551.75
461.668	14551.75
461.774	14551.75
461.881	14551.75
461.987	14551.75
462.094	14551.75
462.2	14551.75
462.307	14551.75
462.413	14551.75
462.519	14551.75
462.626	14551.75
462.732	14551.75
462.838	14551.75
462.945	14551.75
463.051	14551.75
463.157	14551.75
463.264	14551.75
463.37	14551.75
463.476	14551.75
463.583	14551.75
463.689	14551.75
463.795	14551.75
463.901	14551.75
464.008	14551.75
464.114	14551.75
464.22	14551.75
464.326	14551.75
464.433	14551.75
464.539	14551.75
464.645	14551.75
464.751	14551.75
464.857	14551.75
464.963	14551.75
465.07	14551.75
465.176	14551.75
465.282	14551.75
465.388	14551.75
465.494	14551.75
465.6	14403.75
465.706	14181.75
465.812	14093.75
465.918	13976.75
466.024	13888.75
466.131	13628.75
466.237	13246.75
466.343	13148.75
466.449	12976.75
466.555	12658.75
466.661	12549.75
466.767	12622.75
466.873	12364.75
466.979	12531.75
467.085	12281.75
467.191	12366.75
467.296	12161.75
467.402	12124.75
467.508	12091.75
467.614	12219.75
467.72	11615.75
467.826	11718.75
467.932	11477.75
468.038	11333.75
468.144	11391.75
468.25	11210.75
468.355	11220.75
468.461	11203.75
468.567	11079.75
468.673	11114.75
468.779	11035.75
468.885	11029.75
468.99	11149.75
469.096	11027.75
469.202	11202.75
469.308	11154.75
469.413	11311.75
469.519	11374.75
469.625	11235.75
469.731	11401.75
469.836	11407.75
469.942	11590.75
470.048	11421.75
470.153	11466.75
470.259	11454.75
470.365	11538.75
470.47	11486.75
470.576	11356.75
470.682	11336.75
470.787	11226.75
470.893	10966.75
470.999	10979.75
471.104	10643.75
471.21	10660.75
471.315	10402.75
471.421	10273.75
471.527	10556.75
471.632	10350.75
471.738	10238.75
471.843	10127.75
471.949	10052.75
472.054	9840.75
472.16	9706.75
472.265	9767.75
472.371	9598.75
472.476	9703.75
472.582	9657.75
472.687	9455.75
472.793	9359.75
472.898	9394.75
473.003	9410.75
473.109	9280.75
473.214	9293.75
473.32	9328.75
473.425	9248.75
473.53	9246.75
473.636	9249.75
473.741	9123.75
473.847	9112.75
473.952	9235.75
474.057	9003.75
474.163	9187.75
474.268	9181.75
474.373	9127.75
474.478	9080.75
474.584	9207.75
474.689	9138.75
474.794	9155.75
474.9	9441.75
475.005	9063.75
475.11	9275.75
475.215	9160.75
475.321	9221.75
475.426	9347.75
475.531	9345.75
475.636	9192.75
475.741	9161.75
475.846	9348.75
475.952	9457.75
476.057	9375.75
476.162	9444.75
476.267	9531.75
476.372	9823.75
476.477	9305.75
476.582	9688.75
476.687	9468.75
476.793	9532.75
476.898	9697.75
477.003	9724.75
477.108	9886.75
477.213	9787.75
477.318	9958.75
477.423	10109.75
477.528	10265.75
477.633	10381.75
477.738	10477.75
477.843	10516.75
477.948	10569.75
478.053	10688.75
478.158	10632.75
478.263	10770.75
478.368	10890.75
478.473	11014.75
478.578	11085.75
478.682	11240.75
478.787	11305.75
478.892	11195.75
478.997	11331.75
479.102	11321.75
479.207	11316.75
479.312	11428.75
479.417	11423.75
479.521	11433.75
479.626	11502.75
479.731	11573.75
479.836	11601.75
479.941	11969.75
480.045	12153.75
480.15	12281.75
480.255	12304.75
480.36	12286.75
480.465	12334.75
480.569	12388.75
480.674	12052.75
480.779	11896.75
480.883	11669.75
480.988	11782.75
481.093	11613.75
481.197	11570.75
481.302	11596.75
481.407	11520.75
481.511	12792.75
481.616	11576.75
481.721	11501.75
481.825	11651.75
481.93	11467.75
482.035	11495.75
482.139	11604.75
482.244	11535.75
482.348	11738.75
482.453	11650.75
482.557	11596.75
482.662	11763.75
482.767	11739.75
482.871	11779.75
482.976	11883.75
483.08	11932.75
483.185	12198.75
483.289	11928.75
483.394	12142.75
483.498	12368.75
483.603	12089.75
483.707	12384.75
483.811	12562.75
483.916	12486.75
484.02	12505.75
484.125	12757.75
484.229	12963.75
484.333	12952.75
484.438	12715.75
484.542	13024.75
484.647	13078.75
484.751	13174.75
484.855	13367.75
484.96	13304.75
485.064	13630.75
485.168	13643.75
485.273	13546.75
485.377	13701.75
485.481	13986.75
485.585	13843.75
485.69	14048.75
485.794	14108.75
485.898	14074.75
486.002	14058.75
486.107	14200.75
486.211	14021.75
486.315	14132.75
486.419	14107.75
486.524	14276.75
486.628	14378.75
486.732	14170.75
486.836	14073.75
486.94	14341.75
487.044	14319.75
487.148	14253.75
487.253	14170.75
487.357	14309.75
487.461	14450.75
487.565	14516.75
487.669	14308.75
487.773	14383.75
487.877	14411.75
487.981	14394.75
488.085	14434.75
488.189	14293.75
488.293	14497.75
488.397	14551.75
488.501	14405.75
488.605	14452.75
488.709	14395.75
488.813	14314.75
488.917	14467.75
489.021	14335.75
489.125	14551.75
489.229	14401.75
489.333	14551.75
489.437	14551.75
489.541	14551.75
489.645	14551.75
489.749	14551.75
489.853	14551.75
489.956	14542.75
490.06	14551.75
490.164	14551.75
490.268	14551.75
490.372	14551.75
490.476	14551.75
490.579	14551.75
490.683	14551.75
490.787	14551.75
490.891	14551.75
490.995	14551.75
491.098	14551.75
491.202	14551.75
491.306	14551.75
491.41	14551.75
491.513	14551.75
491.617	14551.75
491.721	14551.75
491.824	14551.75
491.928	14551.75
492.032	14551.75
492.136	14551.75
492.239	14551.75
492.343	14551.75
492.446	14551.75
492.55	14551.75
492.654	14551.75
492.757	14551.75
492.861	14551.75
492.965	14551.75
493.068	14551.75
493.172	14551.75
493.275	14551.75
493.379	14551.75
493.482	14551.75
493.586	14551.75
493.689	14551.75
493.793	14551.75
493.896	14551.75
494	14551.75
494.103	14551.75
494.207	14551.75
494.31	14551.75
494.414	14551.75
494.517	14551.75
494.621	14551.75
494.724	14551.75
494.828	14551.75
494.931	14551.75
495.034	14551.75
495.138	14551.75
495.241	14551.75
495.345	14551.75
495.448	14551.75
495.551	14551.75
495.655	14551.75
495.758	14551.75
495.861	14551.75
495.965	14551.75
496.068	14551.75
496.171	14551.75
496.274	14551.75
496.378	14551.75
496.481	14551.75
496.584	14551.75
496.687	14551.75
496.791	14551.75
496.894	14551.75
496.997	14551.75
497.1	14551.75
497.204	14551.75
497.307	14551.75
497.41	14551.75
497.513	14551.75
497.616	14551.75
497.719	14551.75
497.823	14551.75
497.926	14551.75
498.029	14551.75
498.132	14551.75
498.235	14551.75
498.338	14551.75
498.441	14551.75
498.544	14551.75
498.647	14551.75
498.75	14551.75
498.853	14551.75
498.956	14551.75
499.059	14551.75
499.163	14551.75
499.266	14551.75
499.369	14551.75
499.471	14551.75
499.574	14551.75
499.677	14551.75
499.78	14551.75
499.883	14551.75
499.986	14551.75
500.089	14551.75
500.192	14551.75
500.295	14551.75
500.398	14551.75
500.501	14551.75
500.604	14551.75
500.707	14551.75
500.809	14551.75
500.912	14551.75
501.015	14551.75
501.118	14551.75
501.221	14551.75
501.324	14551.75
501.426	14551.75
501.529	14551.75
501.632	14551.75
501.735	14551.75
501.837	14551.75
501.94	14551.75
502.043	14551.75
502.146	14551.75
502.248	14551.75
502.351	14551.75
502.454	14551.75
502.557	14551.75
502.659	14551.75
502.762	14551.75
502.865	14551.75
502.967	14551.75
503.07	14551.75
503.173	14551.75
503.275	14510.75
503.378	14411.75
503.48	14110.75
503.583	14129.75
503.686	14004.75
503.788	14268.75
503.891	13963.75
503.993	13854.75
504.096	13856.75
504.198	13919.75
504.301	13999.75
504.403	13928.75
504.506	13777.75
504.608	13540.75
504.711	13246.75
504.813	13134.75
504.916	12659.75
505.018	12331.75
505.121	11924.75
505.223	11953.75
505.326	11839.75
505.428	11662.75
505.531	11485.75
505.633	11494.75
505.735	11232.75
505.838	11116.75
505.94	10905.75
506.042	10851.75
506.145	10827.75
506.247	10856.75
506.35	10673.75
506.452	10732.75
506.554	10476.75
506.656	10553.75
506.759	10456.75
506.861	10417.75
506.963	10300.75
507.066	10425.75
507.168	10412.75
507.27	10307.75
507.372	10110.75
507.475	10107.75
507.577	10146.75
507.679	10037.75
507.781	10046.75
507.883	9873.75
507.986	9950.75
508.088	9734.75
508.19	9772.75
508.292	9835.75
508.394	9736.75
508.496	9668.75
508.598	9723.75
508.701	9703.75
508.803	9534.75
508.905	9463.75
509.007	9743.75
509.109	9573.75
509.211	9544.75
509.313	9607.75
509.415	9417.75
509.517	9430.75
509.619	9385.75
509.721	9466.75
509.823	9468.75
509.925	9520.75
510.027	9228.75
510.129	9262.75
510.231	9331.75
510.333	9222.75
510.435	9146.75
510.537	9349.75
510.639	9486.75
510.741	9241.75
510.843	9537.75
510.945	9238.75
511.047	9216.75
511.148	9329.75
511.25	9298.75
511.352	9291.75
511.454	9151.75
511.556	9422.75
511.658	9344.75
511.76	9344.75
511.861	9497.75
511.963	9317.75
512.065	9246.75
512.167	9174.75
512.268	9593.75
512.37	9500.75
512.472	9332.75
512.574	9561.75
512.676	9571.75
512.777	9279.75
512.879	9323.75
512.981	9315.75
513.082	9396.75
513.184	9521.75
513.286	9881.75
513.387	9492.75
513.489	9538.75
513.591	9707.75
513.692	9567.75
513.794	9635.75
513.896	9525.75
513.997	9665.75
514.099	9675.75
514.2	9825.75
514.302	9819.75
514.404	9923.75
514.505	9939.75
514.607	10084.75
514.708	9923.75
514.81	10168.75
514.911	10205.75
515.013	10210.75
515.114	10242.75
515.216	10234.75
515.317	10399.75
515.419	10356.75
515.52	10691.75
515.622	10589.75
515.723	10680.75
515.825	11146.75
515.926	11008.75
516.027	11139.75
516.129	11153.75
516.23	11518.75
516.332	11626.75
516.433	11806.75
516.534	11901.75
516.636	12050.75
516.737	12364.75
516.838	13647.75
516.94	12996.75
517.041	13196.75
517.142	13381.75
517.244	13741.75
517.345	13756.75
517.446	13753.75
517.547	14002.75
517.649	13960.75
517.75	14027.75
517.851	13989.75
517.952	14199.75
518.054	13667.75
518.155	13617.75
518.256	13200.75
518.357	13290.75
518.458	13021.75
518.56	12787.75
518.661	12641.75
518.762	12253.75
518.863	12253.75
518.964	12200.75
519.065	12057.75
519.166	11905.75
519.268	11694.75
519.369	11897.75
519.47	11579.75
519.571	11594.75
519.672	11386.75
519.773	11214.75
519.874	11282.75
519.975	11316.75
520.076	11183.75
520.177	11327.75
520.278	11091.75
520.379	11112.75
520.48	10926.75
520.581	10972.75
520.682	10977.75
520.783	10947.75
520.884	11121.75
520.985	10859.75
521.086	10844.75
521.187	10918.75
521.288	10739.75
521.389	10824.75
521.489	10832.75
521.59	10627.75
521.691	10775.75
521.792	10553.75
521.893	10793.75
521.994	10724.75
522.095	10733.75
522.195	10650.75
522.296	10742.75
522.397	10610.75
522.498	10629.75
522.599	10710.75
522.699	10659.75
522.8	10679.75
522.901	10702.75
523.002	10742.75
523.102	10896.75
523.203	10614.75
523.304	10681.75
523.405	10684.75
523.505	10718.75
523.606	10699.75
523.707	10486.75
523.807	10574.75
523.908	10586.75
524.009	10723.75
524.109	10605.75
524.21	10589.75
524.31	10686.75
524.411	10711.75
524.512	10729.75
524.612	10716.75
524.713	10825.75
524.813	10685.75
524.914	11008.75
525.014	14551.75
525.115	10986.75
525.216	10673.75
525.316	10689.75
525.417	10845.75
525.517	10545.75
525.618	10731.75
525.718	10607.75
525.819	10682.75
525.919	10706.75
526.019	10704.75
526.12	10755.75
526.22	10720.75
526.321	10651.75
526.421	10762.75
526.522	10654.75
526.622	10585.75
526.722	10741.75
526.823	10799.75
526.923	10740.75
527.023	10828.75
527.124	10688.75
527.224	10666.75
527.324	10629.75
527.425	10746.75
527.525	10370.75
527.625	10638.75
527.726	10671.75
527.826	10609.75
527.926	10683.75
528.026	10670.75
528.127	10497.75
528.227	10615.75
528.327	10738.75
528.427	10634.75
528.528	10667.75
528.628	10555.75
528.728	10565.75
528.828	10535.75
528.928	10561.75
529.029	10633.75
529.129	10623.75
529.229	10527.75
529.329	10586.75
529.429	10574.75
529.529	10633.75
529.629	10686.75
529.729	10516.75
529.829	10669.75
529.93	10502.75
530.03	10572.75
530.13	10414.75
530.23	10465.75
530.33	10697.75
530.43	10330.75
530.53	10478.75
530.63	10643.75
530.73	10374.75
530.83	10265.75
530.93	10269.75
531.03	10243.75
531.13	10410.75
531.23	10290.75
531.33	10302.75
531.429	10362.75
531.529	10446.75
531.629	10459.75
531.729	10114.75
531.829	10197.75
531.929	10313.75
532.029	10125.75
532.129	10089.75
532.229	10338.75
532.328	10217.75
532.428	10101.75
532.528	10095.75
532.628	10005.75
532.728	10043.75
532.827	10036.75
532.927	10125.75
533.027	9979.75
533.127	10012.75
533.227	9951.75
533.326	9861.75
533.426	9821.75
533.526	9991.75
533.625	9965.75
533.725	10135.75
533.825	9772.75
533.924	9740.75
534.024	9490.75
534.124	9574.75
534.223	9661.75
534.323	10013.75
534.423	9570.75
534.522	9698.75
534.622	9360.75
534.722	9353.75
534.821	9313.75
534.921	9353.75
535.02	9243.75
535.12	9397.75
535.219	9444.75
535.319	9190.75
535.419	9237.75
535.518	9121.75
535.618	9019.75
535.717	9168.75
535.817	8967.75
535.916	8861.75
536.016	8884.75
536.115	8858.75
536.215	8882.75
536.314	8796.75
536.413	8699.75
536.513	8647.75
536.612	8676.75
536.712	8586.75
536.811	8603.75
536.91	8594.75
537.01	8585.75
537.109	8742.75
537.209	8605.75
537.308	8396.75
537.407	8516.75
537.507	8501.75
537.606	8468.75
537.705	8516.75
537.805	8384.75
537.904	8241.75
538.003	8348.75
538.102	8341.75
538.202	8240.75
538.301	8357.75
538.4	8338.75
538.499	8166.75
538.599	8198.75
538.698	8430.75
538.797	8057.75
538.896	8029.75
538.995	8165.75
539.095	7996.75
539.194	8220.75
539.293	7947.75
539.392	7974.75
539.491	7824.75
539.59	7840.75
539.689	8112.75
539.789	7955.75
539.888	7852.75
539.987	7834.75
540.086	7795.75
540.185	7821.75
540.284	7907.75
540.383	7662.75
540.482	7612.75
540.581	7678.75
540.68	7631.75
540.779	7715.75
540.878	7684.75
540.977	7816.75
541.076	7564.75
541.175	7597.75
541.274	7803.75
541.373	7708.75
541.472	7582.75
541.571	7614.75
541.67	8916.75
541.769	7609.75
541.868	7620.75
541.966	7572.75
542.065	7491.75
542.164	7378.75
542.263	7415.75
542.362	7330.75
542.461	7513.75
542.56	7378.75
542.658	7401.75
542.757	7328.75
542.856	7399.75
542.955	7237.75
543.054	7231.75
543.152	7515.75
543.251	7257.75
543.35	7374.75
543.449	7399.75
543.547	7334.75
543.646	7273.75
543.745	7333.75
543.843	7368.75
543.942	7364.75
544.041	7231.75
544.14	7374.75
544.238	7081.75
544.337	7499.75
544.436	7326.75
544.534	7616.75
544.633	7295.75
544.731	7395.75
544.83	7396.75
544.929	7404.75
545.027	7435.75
545.126	7452.75
545.224	7413.75
545.323	7469.75
545.421	7433.75
545.52	7442.75
545.619	7487.75
545.717	7415.75
545.816	7461.75
545.914	7536.75
546.013	7585.75
546.111	7631.75
546.209	7325.75
546.308	7291.75
546.406	7406.75
546.505	7497.75
546.603	7455.75
546.702	7328.75
546.8	7225.75
546.899	7297.75
546.997	7356.75
547.095	7397.75
547.194	7408.75
547.292	7383.75
547.39	7383.75
547.489	7319.75
547.587	7541.75
547.685	7348.75
547.784	7601.75
547.882	7410.75
547.98	7331.75
548.079	7446.75
548.177	7273.75
548.275	7271.75
548.373	7525.75
548.472	7218.75
548.57	7311.75
548.668	7492.75
548.766	7262.75
548.864	7422.75
548.963	7398.75
549.061	7542.75
549.159	7350.75
549.257	7531.75
549.355	7512.75
549.454	7435.75
549.552	7540.75
549.65	7499.75
549.748	7479.75
549.846	7504.75
549.944	7485.75
550.042	7394.75
550.14	7335.75
550.238	7467.75
550.336	7249.75
550.434	7105.75
550.532	7256.75
550.631	7248.75
550.729	7147.75
550.827	7306.75
550.925	7104.75
551.023	7230.75
551.121	7184.75
551.218	7362.75
551.316	7137.75
551.414	7225.75
551.512	7312.75
551.61	7327.75
551.708	7347.75
551.806	7434.75
551.904	7324.75
552.002	7456.75
552.1	7585.75
552.198	7527.75
552.296	7738.75
552.393	7838.75
552.491	7994.75
552.589	7924.75
552.687	7921.75
552.785	8072.75
552.882	8124.75
552.98	8162.75
553.078	8144.75
553.176	8218.75
553.274	7976.75
553.371	8041.75
553.469	8088.75
553.567	7999.75
553.665	7898.75
553.762	8419.75
553.86	7922.75
553.958	7761.75
554.055	7685.75
554.153	7572.75
554.251	7488.75
554.348	7581.75
554.446	7421.75
554.544	7390.75
554.641	7652.75
554.739	7315.75
554.837	7318.75
554.934	7314.75
555.032	7182.75
555.129	7148.75
555.227	7390.75
555.324	10974.75
555.422	7286.75
555.519	7097.75
555.617	7006.75
555.715	6752.75
555.812	7223.75
555.91	6894.75
556.007	6859.75
556.105	6814.75
556.202	6798.75
556.299	6711.75
556.397	6778.75
556.494	6675.75
556.592	6782.75
556.689	6722.75
556.787	6699.75
556.884	6495.75
556.981	6585.75
557.079	6706.75
557.176	6713.75
557.273	6753.75
557.371	6725.75
557.468	6661.75
557.566	6721.75
557.663	6530.75
557.76	6686.75
557.857	6713.75
557.955	6682.75
558.052	6682.75
558.149	6904.75
558.247	6809.75
558.344	6554.75
558.441	6580.75
558.538	6593.75
558.636	6704.75
558.733	6766.75
558.83	6741.75
558.927	6656.75
559.024	6694.75
559.122	6689.75
559.219	6669.75
559.316	6742.75
559.413	6875.75
559.51	6617.75
559.607	6610.75
559.704	6690.75
559.801	6706.75
559.899	6668.75
559.996	6961.75
560.093	6777.75
560.19	6565.75
560.287	6813.75
560.384	6940.75
560.481	6723.75
560.578	6726.75
560.675	6742.75
560.772	6883.75
560.869	6830.75
560.966	6992.75
561.063	6793.75
561.16	6937.75
561.257	6939.75
561.354	6842.75
561.451	6847.75
561.548	6957.75
561.645	7123.75
561.742	6771.75
561.838	6937.75
561.935	7049.75
562.032	6882.75
562.129	6986.75
562.226	6882.75
562.323	7031.75
562.42	7070.75
562.516	7096.75
562.613	7015.75
562.71	7081.75
562.807	7812.75
562.904	7200.75
563	7055.75
563.097	7170.75
563.194	7246.75
563.291	7163.75
563.387	7207.75
563.484	7383.75
563.581	7220.75
563.678	7252.75
563.774	7724.75
563.871	7427.75
563.968	7470.75
564.064	7574.75
564.161	7584.75
564.258	7567.75
564.354	7815.75
564.451	7882.75
564.548	7921.75
564.644	7893.75
564.741	7999.75
564.837	7951.75
564.934	8119.75
565.031	8214.75
565.127	8433.75
565.224	8481.75
565.32	8739.75
565.417	8727.75
565.513	8881.75
565.61	9080.75
565.706	9360.75
565.803	9390.75
565.899	9613.75
565.996	9850.75
566.092	9945.75
566.189	10354.75
566.285	10810.75
566.382	10835.75
566.478	11407.75
566.574	11631.75
566.671	11667.75
566.767	11663.75
566.864	11729.75
566.96	11834.75
567.056	11902.75
567.153	12183.75
567.249	12334.75
567.345	12780.75
567.442	12933.75
567.538	13252.75
567.634	13393.75
567.731	13534.75
567.827	13462.75
567.923	13258.75
568.019	12653.75
568.116	12292.75
568.212	11903.75
568.308	11485.75
568.404	11145.75
568.501	10799.75
568.597	10507.75
568.693	10225.75
568.789	10585.75
568.885	9687.75
568.982	9376.75
569.078	9041.75
569.174	9132.75
569.27	8725.75
569.366	8683.75
569.462	8636.75
569.558	8409.75
569.655	8331.75
569.751	8071.75
569.847	7978.75
569.943	7899.75
570.039	7852.75
570.135	8311.75
570.231	7863.75
570.327	8022.75
570.423	8025.75
570.519	7882.75
570.615	7750.75
570.711	7823.75
570.807	7780.75
570.903	7834.75
570.999	7817.75
571.095	7628.75
571.191	7502.75
571.287	7445.75
571.383	7376.75
571.479	7263.75
571.574	7301.75
571.67	7117.75
571.766	7203.75
571.862	6843.75
571.958	6929.75
572.054	6861.75
572.15	6697.75
572.246	6717.75
572.341	6693.75
572.437	6554.75
572.533	6630.75
572.629	6549.75
572.725	6463.75
572.82	6445.75
572.916	6526.75
573.012	6418.75
573.108	6438.75
573.203	6314.75
573.299	6203.75
573.395	6081.75
573.49	6142.75
573.586	6183.75
573.682	6215.75
573.778	6282.75
573.873	6081.75
573.969	6015.75
574.065	6070.75
574.16	5958.75
574.256	5922.75
574.351	5966.75
574.447	6100.75
574.543	5998.75
574.638	6055.75
574.734	6059.75
574.829	6093.75
574.925	5917.75
575.02	5926.75
575.116	5878.75
575.212	5793.75
575.307	5951.75
575.403	5738.75
575.498	5834.75
575.594	5699.75
575.689	5756.75
575.784	5628.75
575.88	5628.75
575.975	5767.75
576.071	5491.75
576.166	5402.75
576.262	5573.75
576.357	5415.75
576.452	5727.75
576.548	5553.75
576.643	5361.75
576.739	5516.75
576.834	5417.75
576.929	5391.75
577.025	6024.75
577.12	5284.75
577.215	5315.75
577.311	5325.75
577.406	5281.75
577.501	5370.75
577.597	5036.75
577.692	5250.75
577.787	5306.75
577.882	5136.75
577.978	5136.75
578.073	5065.75
578.168	5092.75
578.263	4995.75
578.358	4935.75
578.454	4899.75
578.549	4901.75
578.644	4824.75
578.739	5055.75
578.834	4740.75
578.929	4765.75
579.025	4780.75
579.12	4890.75
579.215	5066.75
579.31	4984.75
579.405	4726.75
579.5	4766.75
579.595	4751.75
579.69	4659.75
579.785	4720.75
579.88	4736.75
579.975	4663.75
580.07	4575.75
580.165	4609.75
580.26	4794.75
580.355	4651.75
580.45	4541.75
580.545	4497.75
580.64	4447.75
580.735	4653.75
580.83	4553.75
580.925	4440.75
581.02	4293.75
581.115	4414.75
581.21	4392.75
581.305	4481.75
581.4	4381.75
581.495	4339.75
581.589	4348.75
581.684	4253.75
581.779	4374.75
581.874	4360.75
581.969	4372.75
582.064	4157.75
582.158	4324.75
582.253	4269.75
582.348	4313.75
582.443	4333.75
582.537	4310.75
582.632	4438.75
582.727	4230.75
582.822	4145.75
582.916	4137.75
583.011	4071.75
583.106	4170.75
583.201	4012.75
583.295	4154.75
583.39	4107.75
583.485	3969.75
583.579	5969.75
583.674	4230.75
583.769	4283.75
583.863	4047.75
583.958	3966.75
584.052	3852.75
584.147	3915.75
584.242	3854.75
584.336	3982.75
584.431	4115.75
584.525	3839.75
584.62	4183.75
584.714	3930.75
584.809	3925.75
584.903	3897.75
584.998	3870.75
585.092	3853.75
585.187	3837.75
585.281	3755.75
585.376	3878.75
585.47	3966.75
585.565	3857.75
585.659	3742.75
585.754	3840.75
585.848	3854.75
585.942	3790.75
586.037	3742.75
586.131	6175.75
586.226	3841.75
586.32	3662.75
586.414	3686.75
586.509	3824.75
586.603	3748.75
586.697	3724.75
586.792	3652.75
586.886	3598.75
586.98	3738.75
587.075	3651.75
587.169	3625.75
587.263	3803.75
587.357	3664.75
587.452	3583.75
587.546	3809.75
587.64	3588.75
587.734	3610.75
587.829	3659.75
587.923	3564.75
588.017	3699.75
588.111	3566.75
588.205	3736.75
588.3	3661.75
588.394	3569.75
588.488	3645.75
588.582	3798.75
588.676	3963.75
588.77	4985.75
588.864	7800.75
588.958	7906.75
589.052	6370.75
589.147	5049.75
589.241	4250.75
589.335	4253.75
589.429	5858.75
589.523	6698.75
589.617	5843.75
589.711	4730.75
589.805	4110.75
589.899	3817.75
589.993	3620.75
590.087	3557.75
590.181	3557.75
590.275	3558.75
590.369	3597.75
590.462	3547.75
590.556	3502.75
590.65	3453.75
590.744	3540.75
590.838	3435.75
590.932	3598.75
591.026	3655.75
591.12	3683.75
591.214	3492.75
591.307	3535.75
591.401	3588.75
591.495	3666.75
591.589	3605.75
591.683	3696.75
591.777	3637.75
591.87	4048.75
591.964	3748.75
592.058	3680.75
592.152	3761.75
592.245	3876.75
592.339	3862.75
592.433	3927.75
592.527	3933.75
592.62	3833.75
592.714	3966.75
592.808	4166.75
592.901	4093.75
592.995	3992.75
593.089	4230.75
593.182	4134.75
593.276	4010.75
593.37	4030.75
593.463	3993.75
593.557	4029.75
593.65	4035.75
593.744	4155.75
593.837	4179.75
593.931	4094.75
594.025	7945.75
594.118	4284.75
594.212	3968.75
594.305	3948.75
594.399	3955.75
594.492	4214.75
594.586	3890.75
594.679	3810.75
594.773	3615.75
594.866	3655.75
594.96	3595.75
595.053	3530.75
595.146	3497.75
595.24	3530.75
595.333	3393.75
595.427	3266.75
595.52	3296.75
595.614	3495.75
595.707	3257.75
595.8	3282.75
595.894	3246.75
595.987	3111.75
596.08	3055.75
596.174	3544.75
596.267	3189.75
596.36	3070.75
596.454	3184.75
596.547	3112.75
596.64	2931.75
596.733	2902.75
596.827	3000.75
596.92	2935.75
597.013	2814.75
597.106	2886.75
597.2	2758.75
597.293	2770.75
597.386	3108.75
597.479	2862.75
597.572	2881.75
597.666	2798.75
597.759	2767.75
597.852	2827.75
597.945	2747.75
598.038	2711.75
598.131	2733.75
598.224	2723.75
598.317	2878.75
598.411	2689.75
598.504	2747.75
598.597	2821.75
598.69	2694.75
598.783	2668.75
598.876	2755.75
598.969	2755.75
599.062	2651.75
599.155	2726.75
599.248	2673.75
599.341	2701.75
599.434	2637.75
599.527	2731.75
599.62	2647.75
599.713	2595.75
599.806	2722.75
599.899	2835.75
599.991	2587.75
600.084	2847.75
600.177	2538.75
600.27	2597.75
600.363	2823.75
600.456	2668.75
600.549	2612.75
600.642	2530.75
600.734	2608.75
600.827	2510.75
600.92	2694.75
601.013	2594.75
601.106	2501.75
601.199	2534.75
601.291	2579.75
601.384	2508.75
601.477	2730.75
601.57	2608.75
601.662	2501.75
601.755	2492.75
601.848	2515.75
601.94	2483.75
602.033	2629.75
602.126	2511.75
602.219	2532.75
602.311	2613.75
602.404	2472.75
602.497	2448.75
602.589	2443.75
602.682	2489.75
602.774	2507.75
602.867	2427.75
602.96	2400.75
603.052	2486.75
603.145	2506.75
603.237	2468.75
603.33	2394.75
603.422	2556.75
603.515	2303.75
603.608	2427.75
603.7	2437.75
603.793	2424.75
603.885	2381.75
603.978	2365.75
604.07	2442.75
604.163	2356.75
604.255	2419.75
604.347	2371.75
604.44	2379.75
604.532	2358.75
604.625	2380.75
604.717	2378.75
604.81	2424.75
604.902	2343.75
604.994	2280.75
605.087	2349.75
605.179	2355.75
605.271	2438.75
605.364	2321.75
605.456	2420.75
605.548	2383.75
605.641	2334.75
605.733	2307.75
605.825	2392.75
605.918	2250.75
606.01	2470.75
606.102	2867.75
606.194	2277.75
606.287	2451.75
606.379	2339.75
606.471	2382.75
606.563	2331.75
606.655	2310.75
606.748	2474.75
606.84	2236.75
606.932	2344.75
607.024	2318.75
607.116	2197.75
607.208	2288.75
607.301	2318.75
607.393	2244.75
607.485	2285.75
607.577	2381.75
607.669	2390.75
607.761	2286.75
607.853	2565.75
607.945	2245.75
608.037	2157.75
608.129	2298.75
608.221	2239.75
608.313	2289.75
608.405	2305.75
608.497	2310.75
608.589	2235.75
608.681	2251.75
608.773	2325.75
608.865	2306.75
608.957	2250.75
609.049	2223.75
609.141	2306.75
609.233	2185.75
609.325	2170.75
609.417	2214.75
609.509	2287.75
609.601	2388.75
609.693	2374.75
609.784	2207.75
609.876	2204.75
609.968	2307.75
610.06	4397.75
610.152	2349.75
610.244	2991.75
610.335	2309.75
610.427	2187.75
610.519	2147.75
610.611	2284.75
610.702	2142.75
610.794	2091.75
610.886	2195.75
610.978	2038.75
611.069	2619.75
611.161	2110.75
611.253	2092.75
611.344	1942.75
611.436	1879.75
611.528	2038.75
611.62	1869.75
611.711	1907.75
611.803	1933.75
611.894	1838.75
611.986	1844.75
612.078	1841.75
612.169	1807.75
612.261	1800.75
612.352	1812.75
612.444	1740.75
612.536	1789.75
612.627	1738.75
612.719	1656.75
612.81	1598.75
612.902	1584.75
612.993	1623.75
613.085	1600.75
613.176	1461.75
613.268	1569.75
613.359	1470.75
613.451	1425.75
613.542	1471.75
613.634	1442.75
613.725	1466.75
613.816	1505.75
613.908	1332.75
613.999	1328.75
614.091	1201.75
614.182	1224.75
614.273	1253.75
614.365	1186.75
614.456	1180.75
614.547	1118.75
614.639	1104.75
614.73	1122.75
614.821	1142.75
614.913	1000.75
615.004	955.75
615.095	987.75
615.187	917.75
