Data from 14g_HRC06701__19__202.txt Node

Date: Thu Apr 18 01:58:13 CDT 2024
User: Estudiantes 2
Spectrometer: HR+C0670
Trigger mode: 4
Integration Time (sec): 1.000000E0
Scans to average: 1
Electric dark correction enabled: true
Nonlinearity correction enabled: false
Boxcar width: 0
XAxis mode: Wavelengths
Number of Pixels in Spectrum: 2048
>>>>>Begin Spectral Data<<<<<
407.81	-173.75
407.921	-173.75
408.032	-173.75
408.143	-112.75
408.254	-82.75
408.365	20.25
408.476	242.25
408.587	23.25
408.699	-31.75
408.81	-6.75
408.921	-10.75
409.032	-56.75
409.143	21.25
409.254	37.25
409.365	85.25
409.476	-30.75
409.587	12.25
409.698	64.25
409.809	69.25
409.92	-38.75
410.031	24.25
410.142	37.25
410.253	3.25
410.364	55.25
410.475	1283.25
410.585	6230.25
410.696	6656.25
410.807	6526.25
410.918	6449.25
411.029	6576.25
411.14	6664.25
411.251	6591.25
411.362	6635.25
411.472	6714.25
411.583	6596.25
411.694	6872.25
411.805	6757.25
411.916	6760.25
412.026	6916.25
412.137	6822.25
412.248	6727.25
412.359	6899.25
412.47	6617.25
412.58	6533.25
412.691	6667.25
412.802	6520.25
412.912	6679.25
413.023	6625.25
413.134	6490.25
413.245	6662.25
413.355	6616.25
413.466	6537.25
413.577	6608.25
413.687	6728.25
413.798	6290.25
413.909	6778.25
414.019	6638.25
414.13	6584.25
414.24	6628.25
414.351	6792.25
414.462	7035.25
414.572	6770.25
414.683	6818.25
414.793	6653.25
414.904	7016.25
415.014	6689.25
415.125	6708.25
415.235	6693.25
415.346	6884.25
415.456	6806.25
415.567	6673.25
415.677	6611.25
415.788	6669.25
415.898	6536.25
416.009	6520.25
416.119	6683.25
416.23	6590.25
416.34	6436.25
416.45	6675.25
416.561	7415.25
416.671	6637.25
416.782	6609.25
416.892	6759.25
417.002	6704.25
417.113	6862.25
417.223	6754.25
417.333	6732.25
417.444	6729.25
417.554	6997.25
417.664	6983.25
417.775	6874.25
417.885	7113.25
417.995	6964.25
418.106	7207.25
418.216	6965.25
418.326	7225.25
418.436	7302.25
418.547	7356.25
418.657	7296.25
418.767	7461.25
418.877	7389.25
418.987	7561.25
419.098	7489.25
419.208	7539.25
419.318	7533.25
419.428	7634.25
419.538	7512.25
419.648	7622.25
419.759	7588.25
419.869	7493.25
419.979	7404.25
420.089	7524.25
420.199	7593.25
420.309	7548.25
420.419	7685.25
420.529	7503.25
420.639	8094.25
420.749	7811.25
420.859	7743.25
420.969	7841.25
421.079	8012.25
421.189	7833.25
421.299	7702.25
421.409	7648.25
421.519	7934.25
421.629	8033.25
421.739	7946.25
421.849	8071.25
421.959	7947.25
422.069	8044.25
422.179	8051.25
422.289	8223.25
422.399	8289.25
422.509	8493.25
422.619	11008.25
422.729	8660.25
422.838	8472.25
422.948	8682.25
423.058	8654.25
423.168	8695.25
423.278	8827.25
423.388	8854.25
423.498	9054.25
423.607	9010.25
423.717	9271.25
423.827	9506.25
423.937	9139.25
424.046	9237.25
424.156	9288.25
424.266	9293.25
424.376	9608.25
424.485	9567.25
424.595	9371.25
424.705	9494.25
424.815	9520.25
424.924	9951.25
425.034	9590.25
425.144	9565.25
425.253	9624.25
425.363	9762.25
425.473	9818.25
425.582	9604.25
425.692	9859.25
425.801	9825.25
425.911	10075.25
426.021	10017.25
426.13	10283.25
426.24	10142.25
426.349	10226.25
426.459	10217.25
426.568	10253.25
426.678	10393.25
426.787	10505.25
426.897	10262.25
427.006	10478.25
427.116	10611.25
427.225	10574.25
427.335	10764.25
427.444	10584.25
427.554	10631.25
427.663	10697.25
427.773	10722.25
427.882	10886.25
427.992	10858.25
428.101	11077.25
428.21	10912.25
428.32	11041.25
428.429	10973.25
428.539	11443.25
428.648	11357.25
428.757	11148.25
428.867	11260.25
428.976	11737.25
429.085	11414.25
429.195	11473.25
429.304	11660.25
429.413	11595.25
429.523	11574.25
429.632	11717.25
429.741	11695.25
429.85	11582.25
429.96	11880.25
430.069	11914.25
430.178	11952.25
430.287	12192.25
430.397	12018.25
430.506	12003.25
430.615	12141.25
430.724	12397.25
430.833	12240.25
430.943	12068.25
431.052	12324.25
431.161	12347.25
431.27	12364.25
431.379	12735.25
431.488	13110.25
431.597	12719.25
431.706	13034.25
431.816	13074.25
431.925	12999.25
432.034	12856.25
432.143	12944.25
432.252	12732.25
432.361	12800.25
432.47	12964.25
432.579	12728.25
432.688	12828.25
432.797	12880.25
432.906	12806.25
433.015	12951.25
433.124	13138.25
433.233	13243.25
433.342	13016.25
433.451	13073.25
433.56	13059.25
433.669	13180.25
433.778	13044.25
433.886	13203.25
433.995	13142.25
434.104	13526.25
434.213	13493.25
434.322	13510.25
434.431	13860.25
434.54	14229.25
434.649	14341.25
434.757	14230.25
434.866	14115.25
434.975	14034.25
435.084	13806.25
435.193	13573.25
435.301	13500.25
435.41	13352.25
435.519	13382.25
435.628	12721.25
435.737	12657.25
435.845	12417.25
435.954	12295.25
436.063	12351.25
436.171	12384.25
436.28	12269.25
436.389	12654.25
436.498	12241.25
436.606	12227.25
436.715	12309.25
436.823	12047.25
436.932	11807.25
437.041	11705.25
437.149	11844.25
437.258	11600.25
437.367	11411.25
437.475	11709.25
437.584	11744.25
437.692	11302.25
437.801	12968.25
437.91	11440.25
438.018	11170.25
438.127	11204.25
438.235	11417.25
438.344	11277.25
438.452	11269.25
438.561	11096.25
438.669	11106.25
438.778	10970.25
438.886	11065.25
438.995	10831.25
439.103	11109.25
439.212	11108.25
439.32	11127.25
439.428	11037.25
439.537	11131.25
439.645	11338.25
439.754	11278.25
439.862	11042.25
439.97	11341.25
440.079	11346.25
440.187	11241.25
440.295	11501.25
440.404	11376.25
440.512	11445.25
440.62	11599.25
440.729	11481.25
440.837	11686.25
440.945	12341.25
441.054	11831.25
441.162	11850.25
441.27	12273.25
441.378	12494.25
441.487	12369.25
441.595	12937.25
441.703	12486.25
441.811	12181.25
441.92	12008.25
442.028	11936.25
442.136	11963.25
442.244	11824.25
442.352	11989.25
442.461	11662.25
442.569	11718.25
442.677	11858.25
442.785	11862.25
442.893	11740.25
443.001	11789.25
443.109	11780.25
443.217	11847.25
443.325	11813.25
443.434	12694.25
443.542	12361.25
443.65	12166.25
443.758	12403.25
443.866	12324.25
443.974	12742.25
444.082	12722.25
444.19	13048.25
444.298	13148.25
444.406	13390.25
444.514	13758.25
444.622	13714.25
444.73	13693.25
444.838	13675.25
444.946	13469.25
445.054	12937.25
445.161	12975.25
445.269	12630.25
445.377	12613.25
445.485	12462.25
445.593	12297.25
445.701	12315.25
445.809	12285.25
445.917	12207.25
446.025	12032.25
446.132	12210.25
446.24	12295.25
446.348	12080.25
446.456	11889.25
446.564	12031.25
446.671	11924.25
446.779	11881.25
446.887	11930.25
446.995	11752.25
447.102	11911.25
447.21	11805.25
447.318	11891.25
447.426	11784.25
447.533	12078.25
447.641	13081.25
447.749	11813.25
447.856	11728.25
447.964	11876.25
448.072	11881.25
448.179	11810.25
448.287	11885.25
448.395	11989.25
448.502	11751.25
448.61	12029.25
448.718	11863.25
448.825	11992.25
448.933	11806.25
449.04	12073.25
449.148	12006.25
449.256	12174.25
449.363	12124.25
449.471	12386.25
449.578	12159.25
449.686	12244.25
449.793	12531.25
449.901	12468.25
450.008	12532.25
450.116	12643.25
450.223	12596.25
450.331	12874.25
450.438	12998.25
450.546	13021.25
450.653	13226.25
450.76	13440.25
450.868	13373.25
450.975	13618.25
451.083	13691.25
451.19	13665.25
451.297	13457.25
451.405	13644.25
451.512	13614.25
451.619	13881.25
451.727	13821.25
451.834	13742.25
451.941	13798.25
452.049	13765.25
452.156	13921.25
452.263	14119.25
452.371	14157.25
452.478	14131.25
452.585	14337.25
452.692	14021.25
452.8	14259.25
452.907	14496.25
453.014	14238.25
453.121	14485.25
453.229	14456.25
453.336	14497.25
453.443	14554.25
453.55	14554.25
453.657	14354.25
453.765	14554.25
453.872	14554.25
453.979	14554.25
454.086	14554.25
454.193	14554.25
454.3	14554.25
454.407	14554.25
454.514	14554.25
454.621	14554.25
454.729	14554.25
454.836	14554.25
454.943	14554.25
455.05	14554.25
455.157	14554.25
455.264	14554.25
455.371	14554.25
455.478	14554.25
455.585	14554.25
455.692	14554.25
455.799	14554.25
455.906	14554.25
456.013	14554.25
456.12	14554.25
456.227	14554.25
456.334	14554.25
456.44	14554.25
456.547	14554.25
456.654	14554.25
456.761	14554.25
456.868	14554.25
456.975	14554.25
457.082	14554.25
457.189	14554.25
457.296	14554.25
457.402	14554.25
457.509	14554.25
457.616	14554.25
457.723	14554.25
457.83	14554.25
457.936	14554.25
458.043	14554.25
458.15	14554.25
458.257	14554.25
458.363	14554.25
458.47	14554.25
458.577	14554.25
458.684	14554.25
458.79	14554.25
458.897	14554.25
459.004	14554.25
459.11	14554.25
459.217	14554.25
459.324	14554.25
459.43	14554.25
459.537	14554.25
459.644	14554.25
459.75	14554.25
459.857	14554.25
459.964	14554.25
460.07	14554.25
460.177	14554.25
460.283	14554.25
460.39	14554.25
460.496	14554.25
460.603	14554.25
460.71	14554.25
460.816	14554.25
460.923	14554.25
461.029	14554.25
461.136	14554.25
461.242	14554.25
461.349	14554.25
461.455	14554.25
461.562	14554.25
461.668	14554.25
461.774	14554.25
461.881	14554.25
461.987	14554.25
462.094	14554.25
462.2	14554.25
462.307	14554.25
462.413	14554.25
462.519	14554.25
462.626	14554.25
462.732	14554.25
462.838	14554.25
462.945	14554.25
463.051	14554.25
463.157	14554.25
463.264	14554.25
463.37	14554.25
463.476	14554.25
463.583	14554.25
463.689	14554.25
463.795	14554.25
463.901	14554.25
464.008	14554.25
464.114	14554.25
464.22	14554.25
464.326	14554.25
464.433	14554.25
464.539	14554.25
464.645	14554.25
464.751	14554.25
464.857	14554.25
464.963	14554.25
465.07	14554.25
465.176	14554.25
465.282	14554.25
465.388	14554.25
465.494	14554.25
465.6	14554.25
465.706	14554.25
465.812	14554.25
465.918	14554.25
466.024	14554.25
466.131	14554.25
466.237	14554.25
466.343	14554.25
466.449	14554.25
466.555	14554.25
466.661	14554.25
466.767	14554.25
466.873	14554.25
466.979	14554.25
467.085	14554.25
467.191	14554.25
467.296	14554.25
467.402	14554.25
467.508	14554.25
467.614	14554.25
467.72	14554.25
467.826	14554.25
467.932	14554.25
468.038	14554.25
468.144	14519.25
468.25	14385.25
468.355	14394.25
468.461	14402.25
468.567	14382.25
468.673	14302.25
468.779	14265.25
468.885	14136.25
468.99	14089.25
469.096	14272.25
469.202	14152.25
469.308	14163.25
469.413	14445.25
469.519	14487.25
469.625	14405.25
469.731	14476.25
469.836	14414.25
469.942	14554.25
470.048	14554.25
470.153	14485.25
470.259	14499.25
470.365	14554.25
470.47	14554.25
470.576	14315.25
470.682	14381.25
470.787	14145.25
470.893	13883.25
470.999	13923.25
471.104	13766.25
471.21	13449.25
471.315	13364.25
471.421	13315.25
471.527	13542.25
471.632	13239.25
471.738	13080.25
471.843	12913.25
471.949	12805.25
472.054	12734.25
472.16	12767.25
472.265	12721.25
472.371	12439.25
472.476	12480.25
472.582	12545.25
472.687	12231.25
472.793	12332.25
472.898	12454.25
473.003	12226.25
473.109	12030.25
473.214	12032.25
473.32	12169.25
473.425	12005.25
473.53	12132.25
473.636	11916.25
473.741	11965.25
473.847	11808.25
473.952	11901.25
474.057	12003.25
474.163	12011.25
474.268	11970.25
474.373	11837.25
474.478	11848.25
474.584	11631.25
474.689	11850.25
474.794	11836.25
474.9	12134.25
475.005	11897.25
475.11	12103.25
475.215	11865.25
475.321	11915.25
475.426	12142.25
475.531	11869.25
475.636	12055.25
475.741	11779.25
475.846	12173.25
475.952	12233.25
476.057	12053.25
476.162	12232.25
476.267	12318.25
476.372	12645.25
476.477	12205.25
476.582	12227.25
476.687	12258.25
476.793	12282.25
476.898	12500.25
477.003	12568.25
477.108	12491.25
477.213	12596.25
477.318	12918.25
477.423	12941.25
477.528	13062.25
477.633	13224.25
477.738	13407.25
477.843	13258.25
477.948	13398.25
478.053	13543.25
478.158	13710.25
478.263	13751.25
478.368	13817.25
478.473	14088.25
478.578	13955.25
478.682	14084.25
478.787	14184.25
478.892	14020.25
478.997	14141.25
479.102	14126.25
479.207	14273.25
479.312	14448.25
479.417	14290.25
479.521	14543.25
479.626	14554.25
479.731	14554.25
479.836	14554.25
479.941	14554.25
480.045	14554.25
480.15	14554.25
480.255	14554.25
480.36	14554.25
480.465	14554.25
480.569	14554.25
480.674	14554.25
480.779	14554.25
480.883	14554.25
480.988	14554.25
481.093	14554.25
481.197	14554.25
481.302	14554.25
481.407	14554.25
481.511	14554.25
481.616	14554.25
481.721	14554.25
481.825	14554.25
481.93	14554.25
482.035	14554.25
482.139	14554.25
482.244	14554.25
482.348	14554.25
482.453	14554.25
482.557	14554.25
482.662	14554.25
482.767	14554.25
482.871	14554.25
482.976	14554.25
483.08	14554.25
483.185	14554.25
483.289	14554.25
483.394	14554.25
483.498	14554.25
483.603	14554.25
483.707	14554.25
483.811	14554.25
483.916	14554.25
484.02	14554.25
484.125	14554.25
484.229	14554.25
484.333	14554.25
484.438	14554.25
484.542	14554.25
484.647	14554.25
484.751	14554.25
484.855	14554.25
484.96	14554.25
485.064	14554.25
485.168	14554.25
485.273	14554.25
485.377	14554.25
485.481	14554.25
485.585	14554.25
485.69	14554.25
485.794	14554.25
485.898	14554.25
486.002	14554.25
486.107	14554.25
486.211	14554.25
486.315	14554.25
486.419	14554.25
486.524	14554.25
486.628	14554.25
486.732	14554.25
486.836	14554.25
486.94	14554.25
487.044	14554.25
487.148	14554.25
487.253	14554.25
487.357	14554.25
487.461	14554.25
487.565	14554.25
487.669	14554.25
487.773	14554.25
487.877	14554.25
487.981	14554.25
488.085	14554.25
488.189	14554.25
488.293	14554.25
488.397	14554.25
488.501	14554.25
488.605	14554.25
488.709	14554.25
488.813	14554.25
488.917	14554.25
489.021	14554.25
489.125	14554.25
489.229	14554.25
489.333	14554.25
489.437	14554.25
489.541	14554.25
489.645	14554.25
489.749	14554.25
489.853	14554.25
489.956	14554.25
490.06	14554.25
490.164	14554.25
490.268	14554.25
490.372	14554.25
490.476	14554.25
490.579	14554.25
490.683	14554.25
490.787	14554.25
490.891	14554.25
490.995	14554.25
491.098	14554.25
491.202	14554.25
491.306	14554.25
491.41	14554.25
491.513	14554.25
491.617	14554.25
491.721	14554.25
491.824	14554.25
491.928	14554.25
492.032	14554.25
492.136	14554.25
492.239	14554.25
492.343	14554.25
492.446	14554.25
492.55	14554.25
492.654	14554.25
492.757	14554.25
492.861	14554.25
492.965	14554.25
493.068	14554.25
493.172	14554.25
493.275	14554.25
493.379	14554.25
493.482	14554.25
493.586	14554.25
493.689	14554.25
493.793	14554.25
493.896	14554.25
494	14554.25
494.103	14554.25
494.207	14554.25
494.31	14554.25
494.414	14554.25
494.517	14554.25
494.621	14554.25
494.724	14554.25
494.828	14554.25
494.931	14554.25
495.034	14554.25
495.138	14554.25
495.241	14554.25
495.345	14554.25
495.448	14554.25
495.551	14554.25
495.655	14554.25
495.758	14554.25
495.861	14554.25
495.965	14554.25
496.068	14554.25
496.171	14554.25
496.274	14554.25
496.378	14554.25
496.481	14554.25
496.584	14554.25
496.687	14554.25
496.791	14554.25
496.894	14554.25
496.997	14554.25
497.1	14554.25
497.204	14554.25
497.307	14554.25
497.41	14554.25
497.513	14554.25
497.616	14554.25
497.719	14554.25
497.823	14554.25
497.926	14554.25
498.029	14554.25
498.132	14554.25
498.235	14554.25
498.338	14554.25
498.441	14554.25
498.544	14554.25
498.647	14554.25
498.75	14554.25
498.853	14554.25
498.956	14554.25
499.059	14554.25
499.163	14554.25
499.266	14554.25
499.369	14554.25
499.471	14554.25
499.574	14554.25
499.677	14554.25
499.78	14554.25
499.883	14554.25
499.986	14554.25
500.089	14554.25
500.192	14554.25
500.295	14554.25
500.398	14554.25
500.501	14554.25
500.604	14554.25
500.707	14554.25
500.809	14554.25
500.912	14554.25
501.015	14554.25
501.118	14554.25
501.221	14554.25
501.324	14554.25
501.426	14554.25
501.529	14554.25
501.632	14554.25
501.735	14554.25
501.837	14554.25
501.94	14554.25
502.043	14554.25
502.146	14554.25
502.248	14554.25
502.351	14554.25
502.454	14554.25
502.557	14554.25
502.659	14554.25
502.762	14554.25
502.865	14554.25
502.967	14554.25
503.07	14554.25
503.173	14554.25
503.275	14554.25
503.378	14554.25
503.48	14554.25
503.583	14554.25
503.686	14554.25
503.788	14554.25
503.891	14554.25
503.993	14554.25
504.096	14554.25
504.198	14554.25
504.301	14554.25
504.403	14554.25
504.506	14554.25
504.608	14554.25
504.711	14554.25
504.813	14554.25
504.916	14554.25
505.018	14554.25
505.121	14554.25
505.223	14554.25
505.326	14506.25
505.428	14433.25
505.531	14144.25
505.633	14160.25
505.735	13838.25
505.838	13763.25
505.94	13665.25
506.042	13597.25
506.145	13438.25
506.247	13441.25
506.35	13151.25
506.452	13287.25
506.554	13269.25
506.656	13026.25
506.759	13002.25
506.861	13073.25
506.963	12956.25
507.066	12991.25
507.168	12936.25
507.27	12851.25
507.372	12513.25
507.475	12804.25
507.577	12628.25
507.679	12522.25
507.781	12381.25
507.883	12517.25
507.986	12378.25
508.088	12286.25
508.19	12297.25
508.292	12363.25
508.394	12050.25
508.496	12097.25
508.598	12107.25
508.701	12175.25
508.803	12089.25
508.905	12055.25
509.007	12141.25
509.109	12132.25
509.211	11941.25
509.313	11987.25
509.415	11704.25
509.517	11895.25
509.619	11905.25
509.721	11904.25
509.823	11636.25
509.925	11920.25
510.027	11768.25
510.129	11807.25
510.231	11932.25
510.333	11739.25
510.435	11656.25
510.537	11780.25
510.639	11847.25
510.741	11761.25
510.843	11757.25
510.945	11697.25
511.047	11728.25
511.148	11711.25
511.25	11837.25
511.352	11738.25
511.454	11541.25
511.556	11922.25
511.658	11665.25
511.76	11817.25
511.861	11969.25
511.963	11676.25
512.065	11684.25
512.167	11741.25
512.268	12045.25
512.37	11896.25
512.472	11884.25
512.574	11967.25
512.676	11912.25
512.777	11820.25
512.879	11711.25
512.981	11877.25
513.082	11940.25
513.184	11869.25
513.286	12471.25
513.387	11987.25
513.489	12211.25
513.591	12036.25
513.692	12116.25
513.794	12200.25
513.896	11977.25
513.997	12119.25
514.099	12190.25
514.2	12364.25
514.302	12437.25
514.404	12287.25
514.505	12470.25
514.607	12495.25
514.708	12372.25
514.81	12599.25
514.911	12449.25
515.013	12730.25
515.114	12611.25
515.216	12684.25
515.317	12946.25
515.419	12915.25
515.52	13141.25
515.622	13074.25
515.723	13220.25
515.825	13730.25
515.926	13578.25
516.027	13486.25
516.129	13894.25
516.23	14181.25
516.332	14187.25
516.433	14354.25
516.534	14407.25
516.636	14554.25
516.737	14554.25
516.838	14554.25
516.94	14554.25
517.041	14554.25
517.142	14554.25
517.244	14554.25
517.345	14554.25
517.446	14554.25
517.547	14554.25
517.649	14554.25
517.75	14554.25
517.851	14554.25
517.952	14554.25
518.054	14554.25
518.155	14554.25
518.256	14554.25
518.357	14554.25
518.458	14554.25
518.56	14554.25
518.661	14554.25
518.762	14554.25
518.863	14554.25
518.964	14554.25
519.065	14554.25
519.166	14554.25
519.268	14466.25
519.369	14554.25
519.47	14525.25
519.571	14162.25
519.672	14142.25
519.773	13973.25
519.874	14036.25
519.975	13918.25
520.076	13932.25
520.177	14090.25
520.278	13707.25
520.379	13765.25
520.48	13814.25
520.581	13648.25
520.682	13570.25
520.783	13664.25
520.884	13831.25
520.985	13664.25
521.086	13770.25
521.187	13592.25
521.288	13449.25
521.389	13550.25
521.489	13325.25
521.59	13302.25
521.691	13426.25
521.792	13447.25
521.893	13558.25
521.994	13453.25
522.095	13538.25
522.195	13461.25
522.296	13589.25
522.397	13576.25
522.498	13328.25
522.599	13383.25
522.699	13361.25
522.8	13334.25
522.901	13317.25
523.002	13587.25
523.102	13573.25
523.203	13395.25
523.304	13583.25
523.405	13436.25
523.505	13361.25
523.606	13447.25
523.707	13373.25
523.807	13317.25
523.908	13351.25
524.009	13521.25
524.109	13430.25
524.21	13350.25
524.31	13379.25
524.411	13442.25
524.512	13504.25
524.612	13451.25
524.713	13682.25
524.813	13461.25
524.914	13784.25
525.014	14554.25
525.115	13882.25
525.216	13397.25
525.316	13461.25
525.417	13479.25
525.517	13444.25
525.618	13492.25
525.718	13525.25
525.819	13474.25
525.919	13708.25
526.019	13513.25
526.12	13412.25
526.22	13445.25
526.321	13432.25
526.421	13437.25
526.522	13361.25
526.622	13325.25
526.722	13363.25
526.823	13318.25
526.923	13558.25
527.023	13536.25
527.124	13337.25
527.224	13517.25
527.324	13460.25
527.425	13413.25
527.525	13230.25
527.625	13281.25
527.726	13236.25
527.826	13431.25
527.926	13337.25
528.026	13384.25
528.127	13240.25
528.227	13441.25
528.327	13259.25
528.427	13276.25
528.528	13375.25
528.628	13482.25
528.728	13116.25
528.828	13462.25
528.928	13383.25
529.029	13143.25
529.129	13138.25
529.229	13222.25
529.329	13212.25
529.429	13235.25
529.529	13297.25
529.629	13208.25
529.729	13189.25
529.829	13387.25
529.93	13142.25
530.03	13117.25
530.13	13079.25
530.23	13178.25
530.33	13121.25
530.43	13044.25
530.53	13043.25
530.63	13086.25
530.73	12921.25
530.83	12852.25
530.93	12920.25
531.03	12839.25
531.13	12953.25
531.23	12798.25
531.33	12943.25
531.429	13078.25
531.529	12970.25
531.629	12867.25
531.729	12764.25
531.829	12816.25
531.929	12764.25
532.029	12691.25
532.129	12737.25
532.229	12849.25
532.328	12687.25
532.428	12727.25
532.528	12597.25
532.628	12373.25
532.728	12548.25
532.827	12423.25
532.927	12459.25
533.027	12330.25
533.127	12476.25
533.227	12255.25
533.326	12254.25
533.426	12215.25
533.526	12303.25
533.625	12306.25
533.725	12546.25
533.825	12236.25
533.924	12080.25
534.024	11872.25
534.124	11949.25
534.223	12016.25
534.323	12311.25
534.423	11967.25
534.522	11823.25
534.622	11678.25
534.722	11770.25
534.821	11754.25
534.921	11654.25
535.02	11619.25
535.12	11653.25
535.219	11644.25
535.319	11588.25
535.419	11637.25
535.518	11407.25
535.618	11374.25
535.717	11386.25
535.817	11149.25
535.916	11071.25
536.016	11315.25
536.115	11096.25
536.215	10903.25
536.314	10919.25
536.413	11005.25
536.513	10899.25
536.612	10914.25
536.712	10793.25
536.811	10862.25
536.91	10787.25
537.01	10655.25
537.109	10787.25
537.209	10789.25
537.308	10610.25
537.407	10474.25
537.507	10530.25
537.606	10461.25
537.705	10535.25
537.805	10491.25
537.904	10414.25
538.003	10401.25
538.102	10387.25
538.202	10326.25
538.301	10471.25
538.4	10403.25
538.499	10341.25
538.599	10223.25
538.698	10461.25
538.797	10101.25
538.896	10266.25
538.995	10224.25
539.095	10071.25
539.194	10119.25
539.293	10039.25
539.392	9997.25
539.491	9933.25
539.59	9920.25
539.689	9967.25
539.789	9876.25
539.888	9801.25
539.987	9682.25
540.086	9726.25
540.185	9648.25
540.284	9796.25
540.383	9668.25
540.482	9644.25
540.581	9718.25
540.68	9703.25
540.779	9653.25
540.878	9582.25
540.977	9538.25
541.076	9593.25
541.175	9676.25
541.274	9593.25
541.373	9459.25
541.472	9330.25
541.571	9380.25
541.67	10804.25
541.769	9533.25
541.868	9414.25
541.966	9272.25
542.065	9217.25
542.164	9206.25
542.263	9185.25
542.362	9225.25
542.461	9426.25
542.56	9331.25
542.658	9204.25
542.757	9130.25
542.856	9132.25
542.955	9065.25
543.054	9102.25
543.152	9309.25
543.251	9140.25
543.35	9351.25
543.449	9126.25
543.547	9219.25
543.646	9106.25
543.745	9252.25
543.843	9151.25
543.942	9018.25
544.041	9052.25
544.14	9197.25
544.238	9070.25
544.337	9428.25
544.436	9272.25
544.534	9372.25
544.633	9124.25
544.731	9337.25
544.83	9207.25
544.929	9193.25
545.027	9037.25
545.126	9221.25
545.224	9247.25
545.323	9303.25
545.421	9306.25
545.52	9166.25
545.619	9252.25
545.717	9263.25
545.816	9018.25
545.914	9171.25
546.013	9439.25
546.111	9364.25
546.209	9089.25
546.308	9095.25
546.406	9081.25
546.505	9338.25
546.603	9069.25
546.702	9017.25
546.8	9024.25
546.899	8968.25
546.997	9216.25
547.095	9095.25
547.194	9113.25
547.292	9171.25
547.39	9146.25
547.489	9225.25
547.587	9505.25
547.685	9139.25
547.784	9329.25
547.882	9141.25
547.98	9011.25
548.079	9189.25
548.177	9122.25
548.275	9025.25
548.373	9337.25
548.472	9112.25
548.57	9145.25
548.668	9279.25
548.766	9105.25
548.864	9244.25
548.963	9112.25
549.061	9354.25
549.159	9153.25
549.257	9215.25
549.355	9075.25
549.454	9096.25
549.552	9472.25
549.65	9281.25
549.748	9132.25
549.846	9132.25
549.944	9132.25
550.042	9048.25
550.14	9145.25
550.238	9075.25
550.336	8965.25
550.434	8974.25
550.532	8929.25
550.631	9018.25
550.729	9007.25
550.827	9163.25
550.925	8834.25
551.023	8822.25
551.121	8999.25
551.218	8970.25
551.316	8903.25
551.414	9038.25
551.512	8877.25
551.61	9125.25
551.708	9150.25
551.806	9176.25
551.904	9043.25
552.002	9188.25
552.1	9343.25
552.198	9304.25
552.296	9553.25
552.393	9787.25
552.491	9680.25
552.589	9737.25
552.687	9876.25
552.785	9729.25
552.882	10048.25
552.98	10084.25
553.078	9969.25
553.176	10033.25
553.274	9846.25
553.371	9804.25
553.469	9895.25
553.567	9871.25
553.665	9769.25
553.762	10037.25
553.86	9712.25
553.958	9677.25
554.055	9385.25
554.153	9446.25
554.251	9304.25
554.348	9369.25
554.446	9075.25
554.544	9171.25
554.641	9533.25
554.739	8911.25
554.837	9052.25
554.934	9040.25
555.032	8905.25
555.129	8810.25
555.227	9185.25
555.324	12669.25
555.422	8944.25
555.519	8760.25
555.617	8557.25
555.715	8473.25
555.812	9001.25
555.91	8549.25
556.007	8580.25
556.105	8510.25
556.202	8622.25
556.299	8348.25
556.397	8483.25
556.494	8432.25
556.592	8373.25
556.689	8505.25
556.787	8448.25
556.884	8188.25
556.981	8280.25
557.079	8245.25
557.176	8337.25
557.273	8341.25
557.371	8554.25
557.468	8392.25
557.566	8398.25
557.663	8266.25
557.76	8466.25
557.857	8379.25
557.955	8365.25
558.052	8453.25
558.149	8546.25
558.247	8458.25
558.344	8264.25
558.441	8270.25
558.538	8181.25
558.636	8356.25
558.733	8420.25
558.83	8334.25
558.927	8300.25
559.024	8388.25
559.122	8254.25
559.219	8275.25
559.316	8416.25
559.413	8468.25
559.51	8327.25
559.607	8268.25
559.704	8472.25
559.801	8378.25
559.899	8382.25
559.996	8583.25
560.093	8447.25
560.19	8251.25
560.287	8597.25
560.384	8567.25
560.481	8360.25
560.578	8517.25
560.675	8451.25
560.772	8575.25
560.869	8451.25
560.966	8621.25
561.063	8501.25
561.16	8576.25
561.257	8570.25
561.354	8502.25
561.451	8517.25
561.548	8612.25
561.645	8725.25
561.742	8577.25
561.838	8607.25
561.935	8610.25
562.032	8544.25
562.129	8600.25
562.226	8554.25
562.323	8619.25
562.42	8779.25
562.516	8710.25
562.613	8650.25
562.71	8769.25
562.807	9641.25
562.904	8730.25
563	8775.25
563.097	8968.25
563.194	8927.25
563.291	8818.25
563.387	9025.25
563.484	8960.25
563.581	8867.25
563.678	9096.25
563.774	9488.25
563.871	9222.25
563.968	9197.25
564.064	9314.25
564.161	9248.25
564.258	9360.25
564.354	9631.25
564.451	9539.25
564.548	9612.25
564.644	9592.25
564.741	9849.25
564.837	9689.25
564.934	9914.25
565.031	10047.25
565.127	10052.25
565.224	10404.25
565.32	10532.25
565.417	10449.25
565.513	10658.25
565.61	10849.25
565.706	11124.25
565.803	11339.25
565.899	11503.25
565.996	11988.25
566.092	11936.25
566.189	12404.25
566.285	12804.25
566.382	13063.25
566.478	13442.25
566.574	13866.25
566.671	13856.25
566.767	13870.25
566.864	14003.25
566.96	14122.25
567.056	13913.25
567.153	14554.25
567.249	14534.25
567.345	14554.25
567.442	14554.25
567.538	14554.25
567.634	14554.25
567.731	14554.25
567.827	14554.25
567.923	14554.25
568.019	14554.25
568.116	14554.25
568.212	13980.25
568.308	13719.25
568.404	13345.25
568.501	12801.25
568.597	12593.25
568.693	12161.25
568.789	12449.25
568.885	11497.25
568.982	11179.25
569.078	10981.25
569.174	10667.25
569.27	10436.25
569.366	10514.25
569.462	10133.25
569.558	10042.25
569.655	9903.25
569.751	9844.25
569.847	9805.25
569.943	9632.25
570.039	9399.25
570.135	9924.25
570.231	9386.25
570.327	9645.25
570.423	9471.25
570.519	9344.25
570.615	9341.25
570.711	9458.25
570.807	9517.25
570.903	9505.25
570.999	9463.25
571.095	9315.25
571.191	9041.25
571.287	9228.25
571.383	9040.25
571.479	8751.25
571.574	8837.25
571.67	8456.25
571.766	8697.25
571.862	8398.25
571.958	8235.25
572.054	8164.25
572.15	8066.25
572.246	7938.25
572.341	8149.25
572.437	7902.25
572.533	8050.25
572.629	7957.25
572.725	7973.25
572.82	7828.25
572.916	7922.25
573.012	7699.25
573.108	7870.25
573.203	7632.25
573.299	7595.25
573.395	7528.25
573.49	7373.25
573.586	7335.25
573.682	7373.25
573.778	7663.25
573.873	7396.25
573.969	7385.25
574.065	7368.25
574.16	7440.25
574.256	7365.25
574.351	7422.25
574.447	7326.25
574.543	7246.25
574.638	7423.25
574.734	7390.25
574.829	7394.25
574.925	7180.25
575.02	7137.25
575.116	7106.25
575.212	7011.25
575.307	7111.25
575.403	6984.25
575.498	7040.25
575.594	6965.25
575.689	6969.25
575.784	6888.25
575.88	6838.25
575.975	6857.25
576.071	6776.25
576.166	6626.25
576.262	6776.25
576.357	6719.25
576.452	6871.25
576.548	6658.25
576.643	6547.25
576.739	6560.25
576.834	6632.25
576.929	6440.25
577.025	7162.25
577.12	6432.25
577.215	6499.25
577.311	6368.25
577.406	6460.25
577.501	6498.25
577.597	6140.25
577.692	6416.25
577.787	6375.25
577.882	6151.25
577.978	6277.25
578.073	6170.25
578.168	6003.25
578.263	6095.25
578.358	6039.25
578.454	6006.25
578.549	5929.25
578.644	5916.25
578.739	5997.25
578.834	5871.25
578.929	5889.25
579.025	5927.25
579.12	5990.25
579.215	6030.25
579.31	6022.25
579.405	5677.25
579.5	5846.25
579.595	5780.25
579.69	5635.25
579.785	5674.25
579.88	5599.25
579.975	5676.25
580.07	5568.25
580.165	5542.25
580.26	5657.25
580.355	5512.25
580.45	5487.25
580.545	5549.25
580.64	5447.25
580.735	5494.25
580.83	5571.25
580.925	5454.25
581.02	5316.25
581.115	5354.25
581.21	5295.25
581.305	5310.25
581.4	5243.25
581.495	5288.25
581.589	5295.25
581.684	5156.25
581.779	5364.25
581.874	5234.25
581.969	5380.25
582.064	5188.25
582.158	5100.25
582.253	5054.25
582.348	5132.25
582.443	5006.25
582.537	5101.25
582.632	5366.25
582.727	5104.25
582.822	4972.25
582.916	4996.25
583.011	5025.25
583.106	4970.25
583.201	4885.25
583.295	5086.25
583.39	4843.25
583.485	4947.25
583.579	7233.25
583.674	5157.25
583.769	5051.25
583.863	4968.25
583.958	4886.25
584.052	4789.25
584.147	4815.25
584.242	4865.25
584.336	4716.25
584.431	4988.25
584.525	4779.25
584.62	4926.25
584.714	4871.25
584.809	4761.25
584.903	4739.25
584.998	4705.25
585.092	4666.25
585.187	4604.25
585.281	4511.25
585.376	4693.25
585.47	4740.25
585.565	4694.25
585.659	4525.25
585.754	4679.25
585.848	4597.25
585.942	4629.25
586.037	4573.25
586.131	6916.25
586.226	4609.25
586.32	4628.25
586.414	4474.25
586.509	4591.25
586.603	4526.25
586.697	4568.25
586.792	4377.25
586.886	4398.25
586.98	4607.25
587.075	4480.25
587.169	4391.25
587.263	4610.25
587.357	4334.25
587.452	4233.25
587.546	4435.25
587.64	4335.25
587.734	4352.25
587.829	4374.25
587.923	4314.25
588.017	4329.25
588.111	4231.25
588.205	4497.25
588.3	4368.25
588.394	4336.25
588.488	4412.25
588.582	4613.25
588.676	4810.25
588.77	5954.25
588.864	9721.25
588.958	10229.25
589.052	8591.25
589.147	6367.25
589.241	5355.25
589.335	5345.25
589.429	7210.25
589.523	8365.25
589.617	7697.25
589.711	6118.25
589.805	5036.25
589.899	4717.25
589.993	4482.25
590.087	4360.25
590.181	4259.25
590.275	4350.25
590.369	4263.25
590.462	4241.25
590.556	4197.25
590.65	4130.25
590.744	4136.25
590.838	4151.25
590.932	4299.25
591.026	4346.25
591.12	4438.25
591.214	4311.25
591.307	4281.25
591.401	4284.25
591.495	4355.25
591.589	4309.25
591.683	4323.25
591.777	4352.25
591.87	4833.25
591.964	4391.25
592.058	4378.25
592.152	4528.25
592.245	4432.25
592.339	4548.25
592.433	4667.25
592.527	4689.25
592.62	4618.25
592.714	4721.25
592.808	4799.25
592.901	4775.25
592.995	4817.25
593.089	5107.25
593.182	4976.25
593.276	4752.25
593.37	4812.25
593.463	4789.25
593.557	4787.25
593.65	4829.25
593.744	4873.25
593.837	4945.25
593.931	4864.25
594.025	8821.25
594.118	5066.25
594.212	4754.25
594.305	4645.25
594.399	4582.25
594.492	4900.25
594.586	4470.25
594.679	4453.25
594.773	4344.25
594.866	4404.25
594.96	4364.25
595.053	4131.25
595.146	4101.25
595.24	4098.25
595.333	4069.25
595.427	3974.25
595.52	3965.25
595.614	4071.25
595.707	3849.25
595.8	3825.25
595.894	3713.25
595.987	3677.25
596.08	3681.25
596.174	4097.25
596.267	3695.25
596.36	3693.25
596.454	3760.25
596.547	3701.25
596.64	3439.25
596.733	3540.25
596.827	3580.25
596.92	3420.25
597.013	3462.25
597.106	3346.25
597.2	3310.25
597.293	3297.25
597.386	3512.25
597.479	3437.25
597.572	3404.25
597.666	3311.25
597.759	3262.25
597.852	3370.25
597.945	3246.25
598.038	3207.25
598.131	3245.25
598.224	3275.25
598.317	3305.25
598.411	3187.25
598.504	3207.25
598.597	3221.25
598.69	3250.25
598.783	3158.25
598.876	3244.25
598.969	3217.25
599.062	3031.25
599.155	3362.25
599.248	3178.25
599.341	3145.25
599.434	3125.25
599.527	3182.25
599.62	3099.25
599.713	3094.25
599.806	3143.25
599.899	3202.25
599.991	3044.25
600.084	3356.25
600.177	3104.25
600.27	3018.25
600.363	3264.25
600.456	3006.25
600.549	3106.25
600.642	3017.25
600.734	3019.25
600.827	2983.25
600.92	3148.25
601.013	2977.25
601.106	3092.25
601.199	3012.25
601.291	2967.25
601.384	2961.25
601.477	3233.25
601.57	3091.25
601.662	2933.25
601.755	2914.25
601.848	2957.25
601.94	2903.25
602.033	3033.25
602.126	3025.25
602.219	2918.25
602.311	2984.25
602.404	2903.25
602.497	2947.25
602.589	2881.25
602.682	2950.25
602.774	3028.25
602.867	2907.25
602.96	2929.25
603.052	2998.25
603.145	2867.25
603.237	2825.25
603.33	2927.25
603.422	3044.25
603.515	2848.25
603.608	2957.25
603.7	2837.25
603.793	2915.25
603.885	2910.25
603.978	2860.25
604.07	2838.25
604.163	2841.25
604.255	2903.25
604.347	2796.25
604.44	2754.25
604.532	2894.25
604.625	2864.25
604.717	2760.25
604.81	2880.25
604.902	2788.25
604.994	2772.25
605.087	2735.25
605.179	2809.25
605.271	2785.25
605.364	2801.25
605.456	2822.25
605.548	2767.25
605.641	2738.25
605.733	2767.25
605.825	2828.25
605.918	2678.25
606.01	2915.25
606.102	3232.25
606.194	2687.25
606.287	2840.25
606.379	2730.25
606.471	2743.25
606.563	2790.25
606.655	2876.25
606.748	2781.25
606.84	2688.25
606.932	2827.25
607.024	2662.25
607.116	2616.25
607.208	2761.25
607.301	2773.25
607.393	2642.25
607.485	2708.25
607.577	2799.25
607.669	2720.25
607.761	2788.25
607.853	3047.25
607.945	2695.25
608.037	2576.25
608.129	2664.25
608.221	2684.25
608.313	2659.25
608.405	2689.25
608.497	2760.25
608.589	2664.25
608.681	2681.25
608.773	2755.25
608.865	2662.25
608.957	2592.25
609.049	2682.25
609.141	2665.25
609.233	2645.25
609.325	2526.25
609.417	2537.25
609.509	2725.25
609.601	2830.25
609.693	2767.25
609.784	2667.25
609.876	2660.25
609.968	2724.25
610.06	4805.25
610.152	2916.25
610.244	3601.25
610.335	2653.25
610.427	2567.25
610.519	2638.25
610.611	2612.25
610.702	2535.25
610.794	2553.25
610.886	2607.25
610.978	2476.25
611.069	2944.25
611.161	2468.25
611.253	2450.25
611.344	2364.25
611.436	2316.25
611.528	2344.25
611.62	2220.25
611.711	2328.25
611.803	2226.25
611.894	2183.25
611.986	2221.25
612.078	2195.25
612.169	2140.25
612.261	2060.25
612.352	2002.25
612.444	2013.25
612.536	2127.25
612.627	2025.25
612.719	1908.25
612.81	1913.25
612.902	1877.25
612.993	1919.25
613.085	1878.25
613.176	1736.25
613.268	1785.25
613.359	1727.25
613.451	1724.25
613.542	1720.25
613.634	1643.25
613.725	1729.25
613.816	1733.25
613.908	1538.25
613.999	1526.25
614.091	1544.25
614.182	1465.25
614.273	1551.25
614.365	1479.25
614.456	1351.25
614.547	1312.25
614.639	1296.25
614.73	1385.25
614.821	1334.25
614.913	1241.25
615.004	1165.25
615.095	1153.25
615.187	1095.25
