Data from 28g_HRC06701__59__425.txt Node

Date: Thu Apr 18 02:21:30 CDT 2024
User: Estudiantes 2
Spectrometer: HR+C0670
Trigger mode: 4
Integration Time (sec): 1.000000E0
Scans to average: 1
Electric dark correction enabled: true
Nonlinearity correction enabled: false
Boxcar width: 0
XAxis mode: Wavelengths
Number of Pixels in Spectrum: 2048
>>>>>Begin Spectral Data<<<<<
407.81	-122.38
407.921	-122.38
408.032	-122.38
408.143	-128.38
408.254	-142.38
408.365	51.62
408.476	278.62
408.587	-38.38
408.699	-12.38
408.81	3.62
408.921	-49.38
409.032	-58.38
409.143	43.62
409.254	16.62
409.365	68.62
409.476	14.62
409.587	6.62
409.698	67.62
409.809	90.62
409.92	9.62
410.031	-42.38
410.142	49.62
410.253	35.62
410.364	31.62
410.475	88.62
410.585	686.62
410.696	735.62
410.807	716.62
410.918	746.62
411.029	788.62
411.14	772.62
411.251	671.62
411.362	789.62
411.472	776.62
411.583	769.62
411.694	867.62
411.805	767.62
411.916	831.62
412.026	887.62
412.137	743.62
412.248	770.62
412.359	794.62
412.47	708.62
412.58	696.62
412.691	787.62
412.802	799.62
412.912	723.62
413.023	728.62
413.134	804.62
413.245	794.62
413.355	726.62
413.466	763.62
413.577	713.62
413.687	864.62
413.798	704.62
413.909	788.62
414.019	750.62
414.13	742.62
414.24	752.62
414.351	799.62
414.462	977.62
414.572	852.62
414.683	822.62
414.793	755.62
414.904	1176.62
415.014	754.62
415.125	723.62
415.235	830.62
415.346	960.62
415.456	891.62
415.567	767.62
415.677	835.62
415.788	821.62
415.898	722.62
416.009	799.62
416.119	808.62
416.23	729.62
416.34	738.62
416.45	761.62
416.561	1584.62
416.671	934.62
416.782	725.62
416.892	771.62
417.002	823.62
417.113	915.62
417.223	770.62
417.333	767.62
417.444	808.62
417.554	869.62
417.664	870.62
417.775	822.62
417.885	891.62
417.995	840.62
418.106	1004.62
418.216	874.62
418.326	905.62
418.436	884.62
418.547	915.62
418.657	855.62
418.767	992.62
418.877	939.62
418.987	873.62
419.098	910.62
419.208	924.62
419.318	988.62
419.428	945.62
419.538	888.62
419.648	957.62
419.759	931.62
419.869	937.62
419.979	932.62
420.089	908.62
420.199	936.62
420.309	987.62
420.419	922.62
420.529	932.62
420.639	1478.62
420.749	970.62
420.859	1046.62
420.969	989.62
421.079	1210.62
421.189	974.62
421.299	953.62
421.409	924.62
421.519	1047.62
421.629	1059.62
421.739	1019.62
421.849	909.62
421.959	958.62
422.069	1126.62
422.179	935.62
422.289	932.62
422.399	1080.62
422.509	1164.62
422.619	3656.62
422.729	1268.62
422.838	1035.62
422.948	1028.62
423.058	1037.62
423.168	1107.62
423.278	1095.62
423.388	1146.62
423.498	1225.62
423.607	1109.62
423.717	1415.62
423.827	1460.62
423.937	1166.62
424.046	1201.62
424.156	1240.62
424.266	1205.62
424.376	1360.62
424.485	1316.62
424.595	1219.62
424.705	1152.62
424.815	1172.62
424.924	1647.62
425.034	1204.62
425.144	1066.62
425.253	1161.62
425.363	1276.62
425.473	1257.62
425.582	1121.62
425.692	1192.62
425.801	1107.62
425.911	1300.62
426.021	1263.62
426.13	1329.62
426.24	1413.62
426.349	1365.62
426.459	1235.62
426.568	1193.62
426.678	1335.62
426.787	1234.62
426.897	1165.62
427.006	1263.62
427.116	1351.62
427.225	1288.62
427.335	1328.62
427.444	1226.62
427.554	1309.62
427.663	1305.62
427.773	1262.62
427.882	1270.62
427.992	1179.62
428.101	1290.62
428.21	1278.62
428.32	1255.62
428.429	1187.62
428.539	1550.62
428.648	1270.62
428.757	1402.62
428.867	1353.62
428.976	1438.62
429.085	1371.62
429.195	1345.62
429.304	1311.62
429.413	1339.62
429.523	1430.62
429.632	1461.62
429.741	1387.62
429.85	1369.62
429.96	1411.62
430.069	1339.62
430.178	1322.62
430.287	1679.62
430.397	1347.62
430.506	1362.62
430.615	1458.62
430.724	1405.62
430.833	1484.62
430.943	1462.62
431.052	1443.62
431.161	1415.62
431.27	1498.62
431.379	1458.62
431.488	1639.62
431.597	1613.62
431.706	1682.62
431.816	1511.62
431.925	1546.62
432.034	1583.62
432.143	1604.62
432.252	1546.62
432.361	1656.62
432.47	1611.62
432.579	1572.62
432.688	1575.62
432.797	1598.62
432.906	1478.62
433.015	1608.62
433.124	2036.62
433.233	1634.62
433.342	1649.62
433.451	1648.62
433.56	1552.62
433.669	1551.62
433.778	1593.62
433.886	1704.62
433.995	1634.62
434.104	1795.62
434.213	1785.62
434.322	1687.62
434.431	1874.62
434.54	1941.62
434.649	1986.62
434.757	1895.62
434.866	1881.62
434.975	1834.62
435.084	1854.62
435.193	1798.62
435.301	2001.62
435.41	2038.62
435.519	2091.62
435.628	1635.62
435.737	1618.62
435.845	1562.62
435.954	1483.62
436.063	1545.62
436.171	1519.62
436.28	1594.62
436.389	1691.62
436.498	1509.62
436.606	1620.62
436.715	1722.62
436.823	1485.62
436.932	1441.62
437.041	1458.62
437.149	1523.62
437.258	1398.62
437.367	1468.62
437.475	1384.62
437.584	1656.62
437.692	1485.62
437.801	2966.62
437.91	1574.62
438.018	1375.62
438.127	1329.62
438.235	1449.62
438.344	1406.62
438.452	1417.62
438.561	1346.62
438.669	1393.62
438.778	1394.62
438.886	1349.62
438.995	1354.62
439.103	1466.62
439.212	1419.62
439.32	1364.62
439.428	1394.62
439.537	1459.62
439.645	1461.62
439.754	1481.62
439.862	1410.62
439.97	1425.62
440.079	1467.62
440.187	1398.62
440.295	1546.62
440.404	1491.62
440.512	1530.62
440.62	1503.62
440.729	1545.62
440.837	1601.62
440.945	2273.62
441.054	1652.62
441.162	1542.62
441.27	1779.62
441.378	1639.62
441.487	1652.62
441.595	2082.62
441.703	1698.62
441.811	1666.62
441.92	1638.62
442.028	1545.62
442.136	1652.62
442.244	1643.62
442.352	1603.62
442.461	1489.62
442.569	1582.62
442.677	1625.62
442.785	1656.62
442.893	1597.62
443.001	1583.62
443.109	1533.62
443.217	1589.62
443.325	1574.62
443.434	2160.62
443.542	1894.62
443.65	1652.62
443.758	1824.62
443.866	1680.62
443.974	2111.62
444.082	1908.62
444.19	1842.62
444.298	1936.62
444.406	2120.62
444.514	2043.62
444.622	2144.62
444.73	2167.62
444.838	1993.62
444.946	2000.62
445.054	1818.62
445.161	1811.62
445.269	1679.62
445.377	1695.62
445.485	1722.62
445.593	1635.62
445.701	1823.62
445.809	1698.62
445.917	1610.62
446.025	1532.62
446.132	1688.62
446.24	1639.62
446.348	1624.62
446.456	1533.62
446.564	1599.62
446.671	1554.62
446.779	1510.62
446.887	1489.62
446.995	1496.62
447.102	1590.62
447.21	1572.62
447.318	1550.62
447.426	1495.62
447.533	1795.62
447.641	2770.62
447.749	1646.62
447.856	1469.62
447.964	1568.62
448.072	1602.62
448.179	1459.62
448.287	1538.62
448.395	1544.62
448.502	1416.62
448.61	1554.62
448.718	1520.62
448.825	1563.62
448.933	1524.62
449.04	1487.62
449.148	1560.62
449.256	1500.62
449.363	1563.62
449.471	1551.62
449.578	1643.62
449.686	1557.62
449.793	1665.62
449.901	1568.62
450.008	1686.62
450.116	1668.62
450.223	1583.62
450.331	1687.62
450.438	1667.62
450.546	1661.62
450.653	1798.62
450.76	1790.62
450.868	1704.62
450.975	2005.62
451.083	1783.62
451.19	1817.62
451.297	1731.62
451.405	1868.62
451.512	1697.62
451.619	1852.62
451.727	1942.62
451.834	1816.62
451.941	1743.62
452.049	1775.62
452.156	1805.62
452.263	1851.62
452.371	1842.62
452.478	1934.62
452.585	1894.62
452.692	1823.62
452.8	1923.62
452.907	2007.62
453.014	1922.62
453.121	1878.62
453.229	1918.62
453.336	1940.62
453.443	1983.62
453.55	1906.62
453.657	1910.62
453.765	2027.62
453.872	1949.62
453.979	1977.62
454.086	1932.62
454.193	1975.62
454.3	1932.62
454.407	2065.62
454.514	2110.62
454.621	2046.62
454.729	1976.62
454.836	1962.62
454.943	2005.62
455.05	2046.62
455.157	2116.62
455.264	1982.62
455.371	2065.62
455.478	1993.62
455.585	2302.62
455.692	2130.62
455.799	2230.62
455.906	2051.62
456.013	1999.62
456.12	1984.62
456.227	2112.62
456.334	2109.62
456.44	2192.62
456.547	2170.62
456.654	2085.62
456.761	2181.62
456.868	2187.62
456.975	2295.62
457.082	2106.62
457.189	2072.62
457.296	2223.62
457.402	2180.62
457.509	2109.62
457.616	2181.62
457.723	2505.62
457.83	2325.62
457.936	2282.62
458.043	2647.62
458.15	2384.62
458.257	2466.62
458.363	2496.62
458.47	2522.62
458.577	2648.62
458.684	2550.62
458.79	2766.62
458.897	2768.62
459.004	2937.62
459.11	2852.62
459.217	2848.62
459.324	2986.62
459.43	3132.62
459.537	3360.62
459.644	3118.62
459.75	3287.62
459.857	3618.62
459.964	3310.62
460.07	3419.62
460.177	3511.62
460.283	3468.62
460.39	3662.62
460.496	3557.62
460.603	3547.62
460.71	3552.62
460.816	3461.62
460.923	3330.62
461.029	3425.62
461.136	3531.62
461.242	3381.62
461.349	3435.62
461.455	3462.62
461.562	3840.62
461.668	3572.62
461.774	3503.62
461.881	3662.62
461.987	3770.62
462.094	3784.62
462.2	3903.62
462.307	3791.62
462.413	3796.62
462.519	3987.62
462.626	4429.62
462.732	4390.62
462.838	4768.62
462.945	4930.62
463.051	4859.62
463.157	4635.62
463.264	4503.62
463.37	4338.62
463.476	4125.62
463.583	4118.62
463.689	3876.62
463.795	3994.62
463.901	4105.62
464.008	4212.62
464.114	4050.62
464.22	3944.62
464.326	4088.62
464.433	3808.62
464.539	3848.62
464.645	3666.62
464.751	3810.62
464.857	3510.62
464.963	3398.62
465.07	3359.62
465.176	3093.62
465.282	3037.62
465.388	3033.62
465.494	2803.62
465.6	2795.62
465.706	2703.62
465.812	2597.62
465.918	2665.62
466.024	2584.62
466.131	2614.62
466.237	2512.62
466.343	2447.62
466.449	2394.62
466.555	2330.62
466.661	2343.62
466.767	2248.62
466.873	2293.62
466.979	2508.62
467.085	2302.62
467.191	2352.62
467.296	2280.62
467.402	2322.62
467.508	2249.62
467.614	2405.62
467.72	2186.62
467.826	2168.62
467.932	2191.62
468.038	2123.62
468.144	2091.62
468.25	2022.62
468.355	2027.62
468.461	2056.62
468.567	2015.62
468.673	2052.62
468.779	2127.62
468.885	2012.62
468.99	2039.62
469.096	2082.62
469.202	2143.62
469.308	2131.62
469.413	2209.62
469.519	2142.62
469.625	2095.62
469.731	2215.62
469.836	2176.62
469.942	2326.62
470.048	2209.62
470.153	2230.62
470.259	2188.62
470.365	2327.62
470.47	2296.62
470.576	2185.62
470.682	2071.62
470.787	2111.62
470.893	2026.62
470.999	2139.62
471.104	2067.62
471.21	1915.62
471.315	1845.62
471.421	1879.62
471.527	2150.62
471.632	1936.62
471.738	1927.62
471.843	1846.62
471.949	1859.62
472.054	1872.62
472.16	1848.62
472.265	1795.62
472.371	1788.62
472.476	1846.62
472.582	1897.62
472.687	1741.62
472.793	1747.62
472.898	1825.62
473.003	1687.62
473.109	1709.62
473.214	1661.62
473.32	1680.62
473.425	1737.62
473.53	1726.62
473.636	1656.62
473.741	1614.62
473.847	1684.62
473.952	1723.62
474.057	1725.62
474.163	1746.62
474.268	1677.62
474.373	1715.62
474.478	1590.62
474.584	1658.62
474.689	1759.62
474.794	1703.62
474.9	1994.62
475.005	1606.62
475.11	1874.62
475.215	1704.62
475.321	1684.62
475.426	1867.62
475.531	1800.62
475.636	1730.62
475.741	1632.62
475.846	1796.62
475.952	1982.62
476.057	1783.62
476.162	1830.62
476.267	1907.62
476.372	2055.62
476.477	1768.62
476.582	1894.62
476.687	1803.62
476.793	1782.62
476.898	1769.62
477.003	1873.62
477.108	1816.62
477.213	1803.62
477.318	1965.62
477.423	1947.62
477.528	1998.62
477.633	2083.62
477.738	2074.62
477.843	2013.62
477.948	2080.62
478.053	2082.62
478.158	2092.62
478.263	2177.62
478.368	2189.62
478.473	2206.62
478.578	2193.62
478.682	2228.62
478.787	2254.62
478.892	2259.62
478.997	2374.62
479.102	2191.62
479.207	2123.62
479.312	2318.62
479.417	2228.62
479.521	2142.62
479.626	2336.62
479.731	2334.62
479.836	2306.62
479.941	2498.62
480.045	2514.62
480.15	2490.62
480.255	2539.62
480.36	2511.62
480.465	2466.62
480.569	2610.62
480.674	2395.62
480.779	2290.62
480.883	2281.62
480.988	2392.62
481.093	2306.62
481.197	2252.62
481.302	2257.62
481.407	2265.62
481.511	3650.62
481.616	2372.62
481.721	2324.62
481.825	2485.62
481.93	2189.62
482.035	2242.62
482.139	2354.62
482.244	2248.62
482.348	2263.62
482.453	2354.62
482.557	2354.62
482.662	2270.62
482.767	2259.62
482.871	2279.62
482.976	2285.62
483.08	2400.62
483.185	2572.62
483.289	2366.62
483.394	2401.62
483.498	2539.62
483.603	2348.62
483.707	2489.62
483.811	2577.62
483.916	2598.62
484.02	2484.62
484.125	2632.62
484.229	2592.62
484.333	2691.62
484.438	2606.62
484.542	2598.62
484.647	2639.62
484.751	2654.62
484.855	2726.62
484.96	2673.62
485.064	2742.62
485.168	2838.62
485.273	2775.62
485.377	2828.62
485.481	3074.62
485.585	2921.62
485.69	2813.62
485.794	2920.62
485.898	2905.62
486.002	2770.62
486.107	2928.62
486.211	2922.62
486.315	2923.62
486.419	2987.62
486.524	2916.62
486.628	2912.62
486.732	2872.62
486.836	2900.62
486.94	3060.62
487.044	2854.62
487.148	2913.62
487.253	2850.62
487.357	2894.62
487.461	3083.62
487.565	2998.62
487.669	2874.62
487.773	2887.62
487.877	3079.62
487.981	2969.62
488.085	2930.62
488.189	2926.62
488.293	3005.62
488.397	3297.62
488.501	3011.62
488.605	2933.62
488.709	2917.62
488.813	2929.62
488.917	2875.62
489.021	2864.62
489.125	3195.62
489.229	2955.62
489.333	3013.62
489.437	2948.62
489.541	2978.62
489.645	2890.62
489.749	3004.62
489.853	3073.62
489.956	2986.62
490.06	2994.62
490.164	2973.62
490.268	2916.62
490.372	3028.62
490.476	2925.62
490.579	2942.62
490.683	3604.62
490.787	3094.62
490.891	2969.62
490.995	2969.62
491.098	2963.62
491.202	3006.62
491.306	3026.62
491.41	2935.62
491.513	2978.62
491.617	2930.62
491.721	3096.62
491.824	3178.62
491.928	2991.62
492.032	3190.62
492.136	3020.62
492.239	3027.62
492.343	2975.62
492.446	3394.62
492.55	3073.62
492.654	2888.62
492.757	2883.62
492.861	3030.62
492.965	3025.62
493.068	3018.62
493.172	2914.62
493.275	3029.62
493.379	2974.62
493.482	3056.62
493.586	3114.62
493.689	3270.62
493.793	3058.62
493.896	3178.62
494	3167.62
494.103	3098.62
494.207	3351.62
494.31	3439.62
494.414	3077.62
494.517	3031.62
494.621	2958.62
494.724	3019.62
494.828	2964.62
494.931	2975.62
495.034	2934.62
495.138	3027.62
495.241	2959.62
495.345	3859.62
495.448	3111.62
495.551	2984.62
495.655	3026.62
495.758	2964.62
495.861	2949.62
495.965	3070.62
496.068	2954.62
496.171	3045.62
496.274	3107.62
496.378	3024.62
496.481	3079.62
496.584	3057.62
496.687	3193.62
496.791	3134.62
496.894	3127.62
496.997	3235.62
497.1	3139.62
497.204	3216.62
497.307	3217.62
497.41	3438.62
497.513	3574.62
497.616	3373.62
497.719	3400.62
497.823	3559.62
497.926	3700.62
498.029	3748.62
498.132	3825.62
498.235	3967.62
498.338	4110.62
498.441	4214.62
498.544	4275.62
498.647	4441.62
498.75	4640.62
498.853	4914.62
498.956	4980.62
499.059	5383.62
499.163	5264.62
499.266	5661.62
499.369	5952.62
499.471	6275.62
499.574	6773.62
499.677	7153.62
499.78	7457.62
499.883	7949.62
499.986	8680.62
500.089	8903.62
500.192	9088.62
500.295	9195.62
500.398	9014.62
500.501	8866.62
500.604	8444.62
500.707	7906.62
500.809	7540.62
500.912	7269.62
501.015	6791.62
501.118	6257.62
501.221	6090.62
501.324	5492.62
501.426	5280.62
501.529	4957.62
501.632	4812.62
501.735	4455.62
501.837	4353.62
501.94	4190.62
502.043	4119.62
502.146	3979.62
502.248	3875.62
502.351	3796.62
502.454	3675.62
502.557	3530.62
502.659	3510.62
502.762	3240.62
502.865	3215.62
502.967	3201.62
503.07	3094.62
503.173	3145.62
503.275	3018.62
503.378	2932.62
503.48	2874.62
503.583	2950.62
503.686	3022.62
503.788	3136.62
503.891	2936.62
503.993	3170.62
504.096	2869.62
504.198	2990.62
504.301	3008.62
504.403	3039.62
504.506	3008.62
504.608	2888.62
504.711	2823.62
504.813	2663.62
504.916	2613.62
505.018	2552.62
505.121	2471.62
505.223	2476.62
505.326	2408.62
505.428	2421.62
505.531	2306.62
505.633	2263.62
505.735	2191.62
505.838	2216.62
505.94	2258.62
506.042	2111.62
506.145	2106.62
506.247	2238.62
506.35	2086.62
506.452	2168.62
506.554	2151.62
506.656	2181.62
506.759	2087.62
506.861	2074.62
506.963	2077.62
507.066	2085.62
507.168	2138.62
507.27	1992.62
507.372	2005.62
507.475	1986.62
507.577	2050.62
507.679	2048.62
507.781	1793.62
507.883	1989.62
507.986	1961.62
508.088	1887.62
508.19	1945.62
508.292	1967.62
508.394	1941.62
508.496	1858.62
508.598	1892.62
508.701	1911.62
508.803	1898.62
508.905	1871.62
509.007	1940.62
509.109	1982.62
509.211	1937.62
509.313	1928.62
509.415	1742.62
509.517	1860.62
509.619	1818.62
509.721	1865.62
509.823	1816.62
509.925	2042.62
510.027	1939.62
510.129	1851.62
510.231	1876.62
510.333	1833.62
510.435	1810.62
510.537	1889.62
510.639	1960.62
510.741	1849.62
510.843	1886.62
510.945	1915.62
511.047	1866.62
511.148	1858.62
511.25	1778.62
511.352	1910.62
511.454	1767.62
511.556	1908.62
511.658	1842.62
511.76	1881.62
511.861	1930.62
511.963	1800.62
512.065	1840.62
512.167	1851.62
512.268	2131.62
512.37	1939.62
512.472	1841.62
512.574	1943.62
512.676	1989.62
512.777	1825.62
512.879	1785.62
512.981	1903.62
513.082	1883.62
513.184	1890.62
513.286	2432.62
513.387	1915.62
513.489	1989.62
513.591	2009.62
513.692	2025.62
513.794	1969.62
513.896	1878.62
513.997	1952.62
514.099	1877.62
514.2	2023.62
514.302	2048.62
514.404	1981.62
514.505	1945.62
514.607	2081.62
514.708	1998.62
514.81	2058.62
514.911	2147.62
515.013	2110.62
515.114	2037.62
515.216	2073.62
515.317	2114.62
515.419	2055.62
515.52	2171.62
515.622	2195.62
515.723	2152.62
515.825	2354.62
515.926	2358.62
516.027	2237.62
516.129	2244.62
516.23	2322.62
516.332	2401.62
516.433	2505.62
516.534	2629.62
516.636	2615.62
516.737	2579.62
516.838	3774.62
516.94	2935.62
517.041	2867.62
517.142	3107.62
517.244	3155.62
517.345	3058.62
517.446	3153.62
517.547	3268.62
517.649	3134.62
517.75	3216.62
517.851	3122.62
517.952	3368.62
518.054	3108.62
518.155	3128.62
518.256	2874.62
518.357	2916.62
518.458	2734.62
518.56	2769.62
518.661	2656.62
518.762	2632.62
518.863	2744.62
518.964	2661.62
519.065	2444.62
519.166	2454.62
519.268	2456.62
519.369	2692.62
519.47	2476.62
519.571	2454.62
519.672	2218.62
519.773	2181.62
519.874	2336.62
519.975	2352.62
520.076	2288.62
520.177	2354.62
520.278	2304.62
520.379	2263.62
520.48	2137.62
520.581	2294.62
520.682	2274.62
520.783	2174.62
520.884	2335.62
520.985	2237.62
521.086	2183.62
521.187	2271.62
521.288	2173.62
521.389	2197.62
521.489	2166.62
521.59	2147.62
521.691	2236.62
521.792	2144.62
521.893	2351.62
521.994	2318.62
522.095	2174.62
522.195	2287.62
522.296	2296.62
522.397	2216.62
522.498	2281.62
522.599	2063.62
522.699	2197.62
522.8	2207.62
522.901	2250.62
523.002	2213.62
523.102	2367.62
523.203	2175.62
523.304	2289.62
523.405	2112.62
523.505	2246.62
523.606	2169.62
523.707	2196.62
523.807	2225.62
523.908	2171.62
524.009	2210.62
524.109	2191.62
524.21	2160.62
524.31	2215.62
524.411	2317.62
524.512	2390.62
524.612	2238.62
524.713	2451.62
524.813	2240.62
524.914	2407.62
525.014	7223.62
525.115	2682.62
525.216	2179.62
525.316	2227.62
525.417	2193.62
525.517	2155.62
525.618	2155.62
525.718	2142.62
525.819	2200.62
525.919	2328.62
526.019	2181.62
526.12	2322.62
526.22	2135.62
526.321	2109.62
526.421	2197.62
526.522	2186.62
526.622	2127.62
526.722	2211.62
526.823	2275.62
526.923	2268.62
527.023	2337.62
527.124	2197.62
527.224	2326.62
527.324	2178.62
527.425	2298.62
527.525	2097.62
527.625	2228.62
527.726	2283.62
527.826	2313.62
527.926	2227.62
528.026	2290.62
528.127	2215.62
528.227	2186.62
528.327	2331.62
528.427	2292.62
528.528	2226.62
528.628	2292.62
528.728	2262.62
528.828	2304.62
528.928	2346.62
529.029	2219.62
529.129	2263.62
529.229	2220.62
529.329	2227.62
529.429	2337.62
529.529	2339.62
529.629	2260.62
529.729	2276.62
529.829	2373.62
529.93	2194.62
530.03	2282.62
530.13	2229.62
530.23	2228.62
530.33	2263.62
530.43	2237.62
530.53	2231.62
530.63	2251.62
530.73	2197.62
530.83	2131.62
530.93	2168.62
531.03	2224.62
531.13	2316.62
531.23	2142.62
531.33	2287.62
531.429	2235.62
531.529	2474.62
531.629	2246.62
531.729	2165.62
531.829	2136.62
531.929	2179.62
532.029	2192.62
532.129	2113.62
532.229	2244.62
532.328	2175.62
532.428	2162.62
532.528	2119.62
532.628	2179.62
532.728	2154.62
532.827	2102.62
532.927	2286.62
533.027	2132.62
533.127	2249.62
533.227	2219.62
533.326	2183.62
533.426	2090.62
533.526	2211.62
533.625	2245.62
533.725	2369.62
533.825	2224.62
533.924	2134.62
534.024	2038.62
534.124	2021.62
534.223	2138.62
534.323	2479.62
534.423	2073.62
534.522	2142.62
534.622	1962.62
534.722	2047.62
534.821	2104.62
534.921	2040.62
535.02	1938.62
535.12	2068.62
535.219	2168.62
535.319	2132.62
535.419	2045.62
535.518	2019.62
535.618	1976.62
535.717	2024.62
535.817	1899.62
535.916	1876.62
536.016	1942.62
536.115	1904.62
536.215	1924.62
536.314	1823.62
536.413	1766.62
536.513	1878.62
536.612	1835.62
536.712	1776.62
536.811	1870.62
536.91	1774.62
537.01	1749.62
537.109	1922.62
537.209	1908.62
537.308	1796.62
537.407	1851.62
537.507	1811.62
537.606	1786.62
537.705	1839.62
537.805	1821.62
537.904	1732.62
538.003	1801.62
538.102	1968.62
538.202	1840.62
538.301	1822.62
538.4	1812.62
538.499	1821.62
538.599	1803.62
538.698	2006.62
538.797	1792.62
538.896	1849.62
538.995	1763.62
539.095	1743.62
539.194	1911.62
539.293	1815.62
539.392	1713.62
539.491	1701.62
539.59	1673.62
539.689	1864.62
539.789	1850.62
539.888	1686.62
539.987	1576.62
540.086	1714.62
540.185	1684.62
540.284	1726.62
540.383	1744.62
540.482	1616.62
540.581	1670.62
540.68	1716.62
540.779	1755.62
540.878	1698.62
540.977	1734.62
541.076	1746.62
541.175	1761.62
541.274	1973.62
541.373	1841.62
541.472	1757.62
541.571	1623.62
541.67	3160.62
541.769	1811.62
541.868	1632.62
541.966	1659.62
542.065	1658.62
542.164	1649.62
542.263	1633.62
542.362	1672.62
542.461	1683.62
542.56	1724.62
542.658	1759.62
542.757	1633.62
542.856	1561.62
542.955	1620.62
543.054	1523.62
543.152	1747.62
543.251	1650.62
543.35	1776.62
543.449	1649.62
543.547	1679.62
543.646	1660.62
543.745	1621.62
543.843	1690.62
543.942	1707.62
544.041	1593.62
544.14	1671.62
544.238	1595.62
544.337	1841.62
544.436	1717.62
544.534	1853.62
544.633	1761.62
544.731	1670.62
544.83	1771.62
544.929	1722.62
545.027	1705.62
545.126	1647.62
545.224	1818.62
545.323	1700.62
545.421	1726.62
545.52	1778.62
545.619	1677.62
545.717	1694.62
545.816	1806.62
545.914	1746.62
546.013	1936.62
546.111	1868.62
546.209	1725.62
546.308	1650.62
546.406	1704.62
546.505	1923.62
546.603	1654.62
546.702	1640.62
546.8	1753.62
546.899	1644.62
546.997	1727.62
547.095	1783.62
547.194	1801.62
547.292	1667.62
547.39	1760.62
547.489	1779.62
547.587	1992.62
547.685	1685.62
547.784	2047.62
547.882	1748.62
547.98	1672.62
548.079	1831.62
548.177	1699.62
548.275	1689.62
548.373	1881.62
548.472	1703.62
548.57	1730.62
548.668	1803.62
548.766	1678.62
548.864	1869.62
548.963	1727.62
549.061	1929.62
549.159	1695.62
549.257	1757.62
549.355	1819.62
549.454	1772.62
549.552	1792.62
549.65	1810.62
549.748	1713.62
549.846	1742.62
549.944	1772.62
550.042	1705.62
550.14	1676.62
550.238	1691.62
550.336	1741.62
550.434	1573.62
550.532	1649.62
550.631	1835.62
550.729	1700.62
550.827	1761.62
550.925	1721.62
551.023	1675.62
551.121	1597.62
551.218	1622.62
551.316	1676.62
551.414	1611.62
551.512	1620.62
551.61	1761.62
551.708	1760.62
551.806	1736.62
551.904	1747.62
552.002	1666.62
552.1	1704.62
552.198	1767.62
552.296	1958.62
552.393	2026.62
552.491	2046.62
552.589	2062.62
552.687	2049.62
552.785	1993.62
552.882	2071.62
552.98	2170.62
553.078	2092.62
553.176	2129.62
553.274	1987.62
553.371	1963.62
553.469	2024.62
553.567	1980.62
553.665	1898.62
553.762	2366.62
553.86	2000.62
553.958	1890.62
554.055	1820.62
554.153	2004.62
554.251	1801.62
554.348	1787.62
554.446	1779.62
554.544	1774.62
554.641	2105.62
554.739	1732.62
554.837	1755.62
554.934	1736.62
555.032	1659.62
555.129	1755.62
555.227	1894.62
555.324	4750.62
555.422	2001.62
555.519	1620.62
555.617	1652.62
555.715	1558.62
555.812	1955.62
555.91	1559.62
556.007	1658.62
556.105	1573.62
556.202	1588.62
556.299	1552.62
556.397	1644.62
556.494	1527.62
556.592	1539.62
556.689	1585.62
556.787	1499.62
556.884	1458.62
556.981	1514.62
557.079	1521.62
557.176	1529.62
557.273	1549.62
557.371	1622.62
557.468	1509.62
557.566	1566.62
557.663	1566.62
557.76	1555.62
557.857	1497.62
557.955	1587.62
558.052	1573.62
558.149	1601.62
558.247	1727.62
558.344	1474.62
558.441	1463.62
558.538	1564.62
558.636	1545.62
558.733	1561.62
558.83	1570.62
558.927	1581.62
559.024	1516.62
559.122	1582.62
559.219	1562.62
559.316	1665.62
559.413	1635.62
559.51	1572.62
559.607	1535.62
559.704	1602.62
559.801	1631.62
559.899	1561.62
559.996	1796.62
560.093	1582.62
560.19	1479.62
560.287	1615.62
560.384	1715.62
560.481	1561.62
560.578	1514.62
560.675	1576.62
560.772	1636.62
560.869	1618.62
560.966	1721.62
561.063	1597.62
561.16	1706.62
561.257	1598.62
561.354	1566.62
561.451	1596.62
561.548	1655.62
561.645	1791.62
561.742	1698.62
561.838	1551.62
561.935	1652.62
562.032	1608.62
562.129	1615.62
562.226	1635.62
562.323	1638.62
562.42	1697.62
562.516	1623.62
562.613	1614.62
562.71	1698.62
562.807	2449.62
562.904	1637.62
563	1738.62
563.097	1681.62
563.194	1707.62
563.291	1661.62
563.387	1672.62
563.484	1711.62
563.581	1728.62
563.678	1690.62
563.774	2106.62
563.871	1817.62
563.968	1814.62
564.064	1809.62
564.161	1747.62
564.258	1864.62
564.354	1935.62
564.451	1883.62
564.548	1916.62
564.644	1897.62
564.741	1881.62
564.837	1886.62
564.934	1974.62
565.031	1966.62
565.127	2039.62
565.224	2099.62
565.32	2265.62
565.417	2165.62
565.513	2307.62
565.61	2397.62
565.706	2401.62
565.803	2468.62
565.899	2484.62
565.996	2607.62
566.092	2655.62
566.189	2808.62
566.285	2873.62
566.382	3011.62
566.478	3231.62
566.574	3287.62
566.671	3176.62
566.767	3305.62
566.864	3171.62
566.96	3303.62
567.056	3304.62
567.153	3712.62
567.249	3533.62
567.345	3630.62
567.442	3898.62
567.538	3970.62
567.634	3999.62
567.731	4046.62
567.827	4031.62
567.923	3960.62
568.019	3679.62
568.116	3430.62
568.212	3220.62
568.308	3255.62
568.404	2970.62
568.501	2841.62
568.597	2853.62
568.693	2714.62
568.789	3288.62
568.885	2452.62
568.982	2505.62
569.078	2317.62
569.174	2328.62
569.27	2141.62
569.366	2126.62
569.462	2067.62
569.558	2088.62
569.655	2030.62
569.751	1965.62
569.847	2023.62
569.943	1976.62
570.039	1846.62
570.135	2364.62
570.231	1964.62
570.327	2065.62
570.423	1939.62
570.519	2011.62
570.615	1934.62
570.711	1958.62
570.807	2004.62
570.903	1907.62
570.999	1932.62
571.095	1900.62
571.191	1868.62
571.287	1866.62
571.383	1929.62
571.479	1829.62
571.574	1890.62
571.67	1727.62
571.766	1888.62
571.862	1615.62
571.958	1620.62
572.054	1753.62
572.15	1573.62
572.246	1560.62
572.341	1704.62
572.437	1640.62
572.533	1662.62
572.629	1593.62
572.725	1630.62
572.82	1515.62
572.916	1674.62
573.012	1595.62
573.108	1623.62
573.203	1491.62
573.299	1515.62
573.395	1475.62
573.49	1382.62
573.586	1481.62
573.682	1466.62
573.778	1595.62
573.873	1477.62
573.969	1536.62
574.065	1439.62
574.16	1471.62
574.256	1527.62
574.351	1518.62
574.447	1407.62
574.543	1467.62
574.638	1537.62
574.734	1446.62
574.829	1696.62
574.925	1511.62
575.02	1402.62
575.116	1402.62
575.212	1455.62
575.307	1510.62
575.403	1385.62
575.498	1463.62
575.594	1381.62
575.689	1404.62
575.784	1452.62
575.88	1399.62
575.975	1460.62
576.071	1355.62
576.166	1374.62
576.262	1335.62
576.357	1275.62
576.452	1587.62
576.548	1363.62
576.643	1282.62
576.739	1399.62
576.834	1378.62
576.929	1357.62
577.025	2060.62
577.12	1289.62
577.215	1221.62
577.311	1303.62
577.406	1429.62
577.501	1435.62
577.597	1217.62
577.692	1468.62
577.787	1348.62
577.882	1246.62
577.978	1318.62
578.073	1220.62
578.168	1167.62
578.263	1185.62
578.358	1194.62
578.454	1144.62
578.549	1191.62
578.644	1155.62
578.739	1224.62
578.834	1197.62
578.929	1232.62
579.025	1130.62
579.12	1241.62
579.215	1481.62
579.31	1307.62
579.405	1145.62
579.5	1285.62
579.595	1148.62
579.69	1112.62
579.785	1138.62
579.88	1151.62
579.975	1129.62
580.07	1115.62
580.165	1162.62
580.26	1253.62
580.355	1161.62
580.45	1131.62
580.545	1043.62
580.64	1163.62
580.735	1212.62
580.83	1201.62
580.925	1078.62
581.02	1035.62
581.115	1107.62
581.21	965.62
581.305	1062.62
581.4	1160.62
581.495	1077.62
581.589	1102.62
581.684	1049.62
581.779	1148.62
581.874	1058.62
581.969	1066.62
582.064	1030.62
582.158	1017.62
582.253	1006.62
582.348	1060.62
582.443	1065.62
582.537	1079.62
582.632	1312.62
582.727	1042.62
582.822	998.62
582.916	1055.62
583.011	980.62
583.106	1035.62
583.201	1000.62
583.295	1056.62
583.39	947.62
583.485	948.62
583.579	2644.62
583.674	1195.62
583.769	1251.62
583.863	1056.62
583.958	1020.62
584.052	899.62
584.147	976.62
584.242	927.62
584.336	918.62
584.431	1163.62
584.525	998.62
584.62	1128.62
584.714	1065.62
584.809	1007.62
584.903	1007.62
584.998	1082.62
585.092	936.62
585.187	949.62
585.281	962.62
585.376	1022.62
585.47	993.62
585.565	980.62
585.659	924.62
585.754	940.62
585.848	995.62
585.942	929.62
586.037	974.62
586.131	3306.62
586.226	1136.62
586.32	1009.62
586.414	863.62
586.509	1073.62
586.603	1046.62
586.697	952.62
586.792	858.62
586.886	903.62
586.98	1050.62
587.075	962.62
587.169	926.62
587.263	1164.62
587.357	954.62
587.452	884.62
587.546	1090.62
587.64	868.62
587.734	923.62
587.829	1010.62
587.923	946.62
588.017	985.62
588.111	994.62
588.205	1096.62
588.3	942.62
588.394	948.62
588.488	1035.62
588.582	1111.62
588.676	1310.62
588.77	2372.62
588.864	5365.62
588.958	5222.62
589.052	3556.62
589.147	2122.62
589.241	1509.62
589.335	1571.62
589.429	3498.62
589.523	4222.62
589.617	3175.62
589.711	2037.62
589.805	1371.62
589.899	1160.62
589.993	1033.62
590.087	940.62
590.181	889.62
590.275	1058.62
590.369	916.62
590.462	896.62
590.556	884.62
590.65	909.62
590.744	914.62
590.838	911.62
590.932	959.62
591.026	958.62
591.12	1166.62
591.214	1023.62
591.307	939.62
591.401	972.62
591.495	1040.62
591.589	984.62
591.683	982.62
591.777	1050.62
591.87	1441.62
591.964	1049.62
592.058	1003.62
592.152	1114.62
592.245	1050.62
592.339	1142.62
592.433	1221.62
592.527	1096.62
592.62	1103.62
592.714	1178.62
592.808	1281.62
592.901	1179.62
592.995	1171.62
593.089	1473.62
593.182	1247.62
593.276	1185.62
593.37	1190.62
593.463	1118.62
593.557	1171.62
593.65	1229.62
593.744	1177.62
593.837	1279.62
593.931	1212.62
594.025	4290.62
594.118	1490.62
594.212	1147.62
594.305	1136.62
594.399	1146.62
594.492	1485.62
594.586	1158.62
594.679	1076.62
594.773	1007.62
594.866	1136.62
594.96	1014.62
595.053	984.62
595.146	987.62
595.24	944.62
595.333	897.62
595.427	884.62
595.52	904.62
595.614	1026.62
595.707	889.62
595.8	926.62
595.894	873.62
595.987	832.62
596.08	864.62
596.174	1213.62
596.267	943.62
596.36	959.62
596.454	974.62
596.547	903.62
596.64	785.62
596.733	757.62
596.827	886.62
596.92	762.62
597.013	747.62
597.106	745.62
597.2	742.62
597.293	720.62
597.386	978.62
597.479	758.62
597.572	782.62
597.666	715.62
597.759	759.62
597.852	848.62
597.945	716.62
598.038	730.62
598.131	719.62
598.224	793.62
598.317	811.62
598.411	738.62
598.504	724.62
598.597	762.62
598.69	654.62
598.783	704.62
598.876	743.62
598.969	763.62
599.062	656.62
599.155	860.62
599.248	681.62
599.341	738.62
599.434	751.62
599.527	711.62
599.62	719.62
599.713	707.62
599.806	751.62
599.899	891.62
599.991	715.62
600.084	944.62
600.177	653.62
600.27	627.62
600.363	883.62
600.456	686.62
600.549	765.62
600.642	671.62
600.734	648.62
600.827	692.62
600.92	849.62
601.013	694.62
601.106	784.62
601.199	718.62
601.291	657.62
601.384	617.62
601.477	897.62
601.57	799.62
601.662	669.62
601.755	653.62
601.848	741.62
601.94	596.62
602.033	823.62
602.126	739.62
602.219	667.62
602.311	731.62
602.404	699.62
602.497	619.62
602.589	586.62
602.682	707.62
602.774	734.62
602.867	665.62
602.96	634.62
603.052	683.62
603.145	610.62
603.237	651.62
603.33	717.62
603.422	763.62
603.515	604.62
603.608	643.62
603.7	670.62
603.793	642.62
603.885	669.62
603.978	657.62
604.07	601.62
604.163	627.62
604.255	725.62
604.347	606.62
604.44	602.62
604.532	708.62
604.625	652.62
604.717	608.62
604.81	700.62
604.902	606.62
604.994	542.62
605.087	627.62
605.179	627.62
605.271	629.62
605.364	651.62
605.456	723.62
605.548	608.62
605.641	630.62
605.733	650.62
605.825	658.62
605.918	571.62
606.01	815.62
606.102	1091.62
606.194	660.62
606.287	776.62
606.379	608.62
606.471	634.62
606.563	709.62
606.655	760.62
606.748	708.62
606.84	635.62
606.932	713.62
607.024	575.62
607.116	566.62
607.208	629.62
607.301	646.62
607.393	612.62
607.485	643.62
607.577	694.62
607.669	723.62
607.761	676.62
607.853	930.62
607.945	591.62
608.037	563.62
608.129	655.62
608.221	613.62
608.313	554.62
608.405	686.62
608.497	645.62
608.589	581.62
608.681	628.62
608.773	723.62
608.865	651.62
608.957	615.62
609.049	680.62
609.141	698.62
609.233	617.62
609.325	620.62
609.417	586.62
609.509	680.62
609.601	786.62
609.693	760.62
609.784	620.62
609.876	611.62
609.968	697.62
610.06	3172.62
610.152	914.62
610.244	925.62
610.335	644.62
610.427	547.62
610.519	675.62
610.611	598.62
610.702	577.62
610.794	655.62
610.886	689.62
610.978	615.62
611.069	1103.62
611.161	694.62
611.253	690.62
611.344	584.62
611.436	548.62
611.528	595.62
611.62	526.62
611.711	570.62
611.803	496.62
611.894	503.62
611.986	499.62
612.078	562.62
612.169	561.62
612.261	558.62
612.352	532.62
612.444	464.62
612.536	604.62
612.627	524.62
612.719	422.62
612.81	421.62
612.902	414.62
612.993	451.62
613.085	454.62
613.176	398.62
613.268	462.62
613.359	405.62
613.451	407.62
613.542	458.62
613.634	388.62
613.725	442.62
613.816	499.62
613.908	344.62
613.999	384.62
614.091	340.62
614.182	271.62
614.273	356.62
614.365	324.62
614.456	277.62
614.547	284.62
614.639	256.62
614.73	305.62
614.821	355.62
614.913	252.62
615.004	279.62
615.095	204.62
615.187	177.62
