Data from 28g_HRC06701__39__405.txt Node

Date: Thu Apr 18 02:21:10 CDT 2024
User: Estudiantes 2
Spectrometer: HR+C0670
Trigger mode: 4
Integration Time (sec): 1.000000E0
Scans to average: 1
Electric dark correction enabled: true
Nonlinearity correction enabled: false
Boxcar width: 0
XAxis mode: Wavelengths
Number of Pixels in Spectrum: 2048
>>>>>Begin Spectral Data<<<<<
407.81	-162.25
407.921	-162.25
408.032	-162.25
408.143	-160.25
408.254	-99.25
408.365	39.75
408.476	253.75
408.587	10.75
408.699	31.75
408.81	-34.25
408.921	-60.25
409.032	-20.25
409.143	10.75
409.254	45.75
409.365	108.75
409.476	-46.25
409.587	11.75
409.698	69.75
409.809	93.75
409.92	-59.25
410.031	-29.25
410.142	91.75
410.253	27.75
410.364	32.75
410.475	307.75
410.585	1434.75
410.696	1574.75
410.807	1526.75
410.918	1541.75
411.029	1658.75
411.14	1585.75
411.251	1541.75
411.362	1588.75
411.472	1696.75
411.583	1701.75
411.694	1691.75
411.805	1675.75
411.916	1750.75
412.026	1691.75
412.137	1714.75
412.248	1649.75
412.359	1586.75
412.47	1581.75
412.58	1555.75
412.691	1592.75
412.802	1541.75
412.912	1602.75
413.023	1645.75
413.134	1561.75
413.245	1643.75
413.355	1604.75
413.466	1497.75
413.577	1588.75
413.687	1710.75
413.798	1520.75
413.909	1689.75
414.019	1642.75
414.13	1700.75
414.24	1566.75
414.351	1669.75
414.462	1873.75
414.572	1655.75
414.683	1623.75
414.793	1643.75
414.904	1984.75
415.014	1712.75
415.125	1613.75
415.235	1667.75
415.346	1804.75
415.456	1793.75
415.567	1706.75
415.677	1644.75
415.788	1731.75
415.898	1613.75
416.009	1562.75
416.119	1661.75
416.23	1622.75
416.34	1578.75
416.45	1696.75
416.561	2521.75
416.671	1763.75
416.782	1605.75
416.892	1695.75
417.002	1684.75
417.113	1780.75
417.223	1684.75
417.333	1742.75
417.444	1702.75
417.554	1780.75
417.664	1863.75
417.775	1655.75
417.885	1753.75
417.995	1789.75
418.106	1990.75
418.216	1808.75
418.326	1946.75
418.436	1899.75
418.547	1875.75
418.657	1895.75
418.767	2089.75
418.877	1909.75
418.987	1944.75
419.098	1976.75
419.208	1926.75
419.318	1974.75
419.428	2024.75
419.538	1866.75
419.648	1926.75
419.759	2027.75
419.869	1967.75
419.979	1916.75
420.089	1993.75
420.199	1961.75
420.309	1938.75
420.419	1953.75
420.529	2052.75
420.639	2409.75
420.749	2009.75
420.859	2140.75
420.969	1931.75
421.079	2238.75
421.189	2123.75
421.299	2041.75
421.409	1951.75
421.519	2144.75
421.629	2182.75
421.739	2076.75
421.849	2007.75
421.959	2105.75
422.069	2180.75
422.179	2141.75
422.289	2215.75
422.399	2267.75
422.509	2339.75
422.619	5771.75
422.729	2569.75
422.838	2168.75
422.948	2321.75
423.058	2364.75
423.168	2373.75
423.278	2367.75
423.388	2492.75
423.498	2480.75
423.607	2435.75
423.717	2768.75
423.827	2792.75
423.937	2548.75
424.046	2581.75
424.156	2656.75
424.266	2471.75
424.376	2845.75
424.485	2663.75
424.595	2565.75
424.705	2508.75
424.815	2619.75
424.924	3018.75
425.034	2617.75
425.144	2436.75
425.253	2501.75
425.363	2605.75
425.473	2592.75
425.582	2543.75
425.692	2553.75
425.801	2491.75
425.911	2716.75
426.021	2636.75
426.13	2740.75
426.24	2826.75
426.349	2718.75
426.459	2693.75
426.568	2680.75
426.678	2779.75
426.787	2677.75
426.897	2626.75
427.006	2724.75
427.116	2717.75
427.225	2779.75
427.335	2836.75
427.444	2740.75
427.554	2741.75
427.663	2812.75
427.773	2730.75
427.882	2787.75
427.992	2789.75
428.101	2849.75
428.21	2829.75
428.32	2881.75
428.429	2826.75
428.539	3122.75
428.648	2848.75
428.757	2948.75
428.867	2947.75
428.976	3100.75
429.085	3068.75
429.195	2936.75
429.304	2953.75
429.413	3103.75
429.523	3076.75
429.632	3004.75
429.741	3045.75
429.85	3036.75
429.96	3107.75
430.069	3012.75
430.178	3091.75
430.287	3394.75
430.397	3102.75
430.506	3230.75
430.615	3092.75
430.724	3217.75
430.833	3232.75
430.943	3202.75
431.052	3235.75
431.161	3266.75
431.27	3449.75
431.379	3233.75
431.488	3662.75
431.597	3521.75
431.706	3622.75
431.816	3500.75
431.925	3600.75
432.034	3404.75
432.143	3561.75
432.252	3557.75
432.361	3611.75
432.47	3508.75
432.579	3508.75
432.688	3516.75
432.797	3495.75
432.906	3462.75
433.015	3687.75
433.124	3857.75
433.233	3621.75
433.342	3710.75
433.451	3697.75
433.56	3541.75
433.669	3591.75
433.778	3580.75
433.886	3699.75
433.995	3761.75
434.104	3975.75
434.213	3878.75
434.322	3922.75
434.431	4155.75
434.54	4131.75
434.649	4320.75
434.757	4272.75
434.866	4084.75
434.975	4132.75
435.084	4019.75
435.193	3877.75
435.301	4000.75
435.41	4085.75
435.519	4116.75
435.628	3529.75
435.737	3531.75
435.845	3475.75
435.954	3320.75
436.063	3412.75
436.171	3434.75
436.28	3445.75
436.389	3616.75
436.498	3521.75
436.606	3419.75
436.715	3574.75
436.823	3440.75
436.932	3332.75
437.041	3270.75
437.149	3312.75
437.258	3342.75
437.367	3226.75
437.475	3234.75
437.584	3519.75
437.692	3084.75
437.801	4801.75
437.91	3349.75
438.018	3077.75
438.127	3067.75
438.235	3230.75
438.344	3201.75
438.452	3165.75
438.561	3008.75
438.669	3188.75
438.778	2995.75
438.886	3122.75
438.995	3109.75
439.103	3095.75
439.212	3067.75
439.32	3177.75
439.428	3108.75
439.537	3172.75
439.645	3258.75
439.754	3259.75
439.862	3089.75
439.97	3193.75
440.079	3294.75
440.187	3153.75
440.295	3323.75
440.404	3224.75
440.512	3203.75
440.62	3358.75
440.729	3451.75
440.837	3476.75
440.945	4229.75
441.054	3542.75
441.162	3572.75
441.27	3719.75
441.378	3725.75
441.487	3752.75
441.595	4144.75
441.703	3844.75
441.811	3732.75
441.92	3618.75
442.028	3540.75
442.136	3554.75
442.244	3570.75
442.352	3501.75
442.461	3365.75
442.569	3541.75
442.677	3531.75
442.785	3516.75
442.893	3526.75
443.001	3457.75
443.109	3484.75
443.217	3523.75
443.325	3481.75
443.434	4112.75
443.542	3935.75
443.65	3657.75
443.758	3778.75
443.866	3831.75
443.974	4250.75
444.082	3904.75
444.19	4047.75
444.298	4307.75
444.406	4401.75
444.514	4476.75
444.622	4686.75
444.73	4464.75
444.838	4279.75
444.946	4246.75
445.054	3981.75
445.161	3869.75
445.269	3774.75
445.377	3825.75
445.485	3606.75
445.593	3649.75
445.701	3814.75
445.809	3638.75
445.917	3629.75
446.025	3511.75
446.132	3638.75
446.24	3600.75
446.348	3601.75
446.456	3370.75
446.564	3420.75
446.671	3481.75
446.779	3466.75
446.887	3380.75
446.995	3447.75
447.102	3476.75
447.21	3466.75
447.318	3409.75
447.426	3403.75
447.533	3643.75
447.641	4656.75
447.749	3443.75
447.856	3363.75
447.964	3373.75
448.072	3491.75
448.179	3399.75
448.287	3357.75
448.395	3459.75
448.502	3330.75
448.61	3369.75
448.718	3347.75
448.825	3443.75
448.933	3356.75
449.04	3318.75
449.148	3465.75
449.256	3491.75
449.363	3412.75
449.471	3490.75
449.578	3639.75
449.686	3458.75
449.793	3599.75
449.901	3534.75
450.008	3518.75
450.116	3679.75
450.223	3656.75
450.331	3787.75
450.438	3764.75
450.546	3762.75
450.653	3897.75
450.76	3878.75
450.868	3969.75
450.975	4141.75
451.083	3914.75
451.19	4018.75
451.297	3962.75
451.405	3964.75
451.512	3969.75
451.619	4193.75
451.727	4201.75
451.834	3977.75
451.941	4121.75
452.049	4065.75
452.156	4001.75
452.263	4138.75
452.371	4096.75
452.478	4083.75
452.585	4243.75
452.692	4198.75
452.8	4172.75
452.907	4336.75
453.014	4258.75
453.121	4195.75
453.229	4330.75
453.336	4328.75
453.443	4443.75
453.55	4263.75
453.657	4278.75
453.765	4499.75
453.872	4256.75
453.979	4366.75
454.086	4560.75
454.193	4409.75
454.3	4325.75
454.407	4502.75
454.514	4528.75
454.621	4375.75
454.729	4418.75
454.836	4424.75
454.943	4457.75
455.05	4536.75
455.157	4745.75
455.264	4525.75
455.371	4618.75
455.478	4503.75
455.585	5989.75
455.692	4780.75
455.799	4871.75
455.906	4631.75
456.013	4603.75
456.12	4706.75
456.227	4761.75
456.334	4908.75
456.44	4892.75
456.547	4845.75
456.654	4685.75
456.761	4830.75
456.868	5014.75
456.975	4984.75
457.082	4917.75
457.189	4837.75
457.296	4992.75
457.402	4992.75
457.509	4950.75
457.616	5078.75
457.723	5374.75
457.83	5276.75
457.936	5217.75
458.043	5645.75
458.15	5325.75
458.257	5533.75
458.363	5540.75
458.47	5690.75
458.577	5916.75
458.684	5808.75
458.79	6109.75
458.897	6166.75
459.004	6420.75
459.11	6285.75
459.217	6348.75
459.324	6520.75
459.43	6803.75
459.537	6988.75
459.644	6884.75
459.75	6928.75
459.857	7585.75
459.964	7353.75
460.07	7404.75
460.177	7542.75
460.283	7567.75
460.39	7819.75
460.496	7651.75
460.603	7711.75
460.71	7591.75
460.816	7447.75
460.923	7370.75
461.029	7461.75
461.136	7419.75
461.242	7452.75
461.349	7494.75
461.455	7411.75
461.562	7785.75
461.668	7747.75
461.774	7715.75
461.881	7880.75
461.987	8083.75
462.094	8313.75
462.2	8311.75
462.307	8250.75
462.413	8312.75
462.519	8654.75
462.626	9415.75
462.732	9414.75
462.838	10058.75
462.945	10277.75
463.051	10303.75
463.157	9892.75
463.264	9306.75
463.37	9053.75
463.476	8854.75
463.583	8616.75
463.689	8498.75
463.795	8680.75
463.901	8700.75
464.008	8941.75
464.114	8826.75
464.22	8837.75
464.326	8845.75
464.433	8324.75
464.539	8386.75
464.645	7997.75
464.751	8045.75
464.857	7764.75
464.963	7313.75
465.07	7135.75
465.176	6788.75
465.282	6564.75
465.388	6522.75
465.494	6313.75
465.6	6106.75
465.706	5969.75
465.812	5874.75
465.918	5969.75
466.024	5812.75
466.131	5685.75
466.237	5563.75
466.343	5370.75
466.449	5336.75
466.555	5301.75
466.661	5106.75
466.767	5194.75
466.873	5242.75
466.979	5378.75
467.085	5148.75
467.191	5192.75
467.296	5198.75
467.402	5152.75
467.508	5142.75
467.614	5206.75
467.72	4883.75
467.826	4963.75
467.932	4864.75
468.038	4753.75
468.144	4704.75
468.25	4730.75
468.355	4765.75
468.461	4672.75
468.567	4679.75
468.673	4609.75
468.779	4590.75
468.885	4566.75
468.99	4674.75
469.096	4673.75
469.202	4735.75
469.308	4794.75
469.413	4917.75
469.519	4878.75
469.625	4933.75
469.731	4868.75
469.836	4947.75
469.942	5127.75
470.048	4988.75
470.153	4930.75
470.259	4964.75
470.365	5079.75
470.47	4939.75
470.576	4831.75
470.682	4915.75
470.787	4724.75
470.893	4621.75
470.999	4691.75
471.104	4581.75
471.21	4471.75
471.315	4390.75
471.421	4430.75
471.527	4560.75
471.632	4344.75
471.738	4310.75
471.843	4135.75
471.949	4196.75
472.054	4293.75
472.16	4104.75
472.265	4165.75
472.371	4220.75
472.476	4067.75
472.582	4154.75
472.687	4024.75
472.793	3921.75
472.898	3902.75
473.003	3941.75
473.109	4033.75
473.214	3833.75
473.32	3900.75
473.425	3987.75
473.53	3915.75
473.636	3921.75
473.741	3892.75
473.847	3893.75
473.952	3825.75
474.057	3863.75
474.163	3942.75
474.268	3838.75
474.373	3929.75
474.478	3860.75
474.584	3832.75
474.689	3936.75
474.794	4050.75
474.9	4125.75
475.005	3846.75
475.11	4076.75
475.215	3910.75
475.321	3925.75
475.426	4145.75
475.531	4061.75
475.636	3928.75
475.741	3909.75
475.846	4129.75
475.952	4179.75
476.057	4039.75
476.162	4188.75
476.267	4157.75
476.372	4320.75
476.477	4119.75
476.582	4223.75
476.687	4117.75
476.793	4120.75
476.898	4145.75
477.003	4200.75
477.108	4294.75
477.213	4311.75
477.318	4319.75
477.423	4367.75
477.528	4648.75
477.633	4609.75
477.738	4545.75
477.843	4614.75
477.948	4732.75
478.053	4715.75
478.158	4751.75
478.263	4848.75
478.368	4833.75
478.473	5012.75
478.578	5128.75
478.682	4993.75
478.787	5187.75
478.892	5070.75
478.997	5148.75
479.102	5002.75
479.207	5001.75
479.312	5185.75
479.417	5035.75
479.521	5080.75
479.626	5270.75
479.731	5257.75
479.836	5291.75
479.941	5625.75
480.045	5580.75
480.15	5632.75
480.255	5725.75
480.36	5670.75
480.465	5633.75
480.569	5791.75
480.674	5585.75
480.779	5306.75
480.883	5326.75
480.988	5493.75
481.093	5285.75
481.197	5181.75
481.302	5196.75
481.407	5262.75
481.511	6685.75
481.616	5454.75
481.721	5244.75
481.825	5393.75
481.93	5202.75
482.035	5237.75
482.139	5330.75
482.244	5308.75
482.348	5372.75
482.453	5410.75
482.557	5526.75
482.662	5610.75
482.767	5477.75
482.871	5414.75
482.976	5545.75
483.08	5628.75
483.185	5909.75
483.289	5726.75
483.394	5761.75
483.498	5839.75
483.603	5858.75
483.707	5936.75
483.811	5949.75
483.916	6078.75
484.02	6081.75
484.125	6301.75
484.229	6210.75
484.333	6456.75
484.438	6223.75
484.542	6368.75
484.647	6393.75
484.751	6539.75
484.855	6606.75
484.96	6683.75
485.064	6717.75
485.168	6733.75
485.273	6869.75
485.377	6898.75
485.481	7096.75
485.585	6978.75
485.69	6865.75
485.794	7099.75
485.898	7008.75
486.002	6995.75
486.107	7152.75
486.211	6993.75
486.315	7062.75
486.419	7122.75
486.524	7036.75
486.628	7122.75
486.732	7172.75
486.836	7055.75
486.94	7232.75
487.044	7155.75
487.148	7089.75
487.253	6978.75
487.357	7144.75
487.461	7350.75
487.565	7117.75
487.669	7154.75
487.773	7009.75
487.877	7160.75
487.981	7175.75
488.085	7130.75
488.189	6978.75
488.293	7108.75
488.397	7488.75
488.501	7063.75
488.605	7047.75
488.709	7059.75
488.813	7082.75
488.917	6995.75
489.021	6970.75
489.125	7414.75
489.229	7015.75
489.333	7143.75
489.437	7216.75
489.541	7138.75
489.645	6961.75
489.749	7098.75
489.853	7211.75
489.956	7052.75
490.06	7195.75
490.164	7148.75
490.268	6977.75
490.372	7192.75
490.476	7035.75
490.579	7050.75
490.683	7773.75
490.787	7171.75
490.891	6931.75
490.995	7009.75
491.098	7077.75
491.202	7017.75
491.306	6996.75
491.41	7101.75
491.513	7000.75
491.617	6888.75
491.721	7095.75
491.824	7278.75
491.928	7030.75
492.032	7305.75
492.136	7052.75
492.239	6996.75
492.343	7068.75
492.446	7596.75
492.55	7115.75
492.654	6963.75
492.757	6900.75
492.861	7039.75
492.965	6920.75
493.068	7006.75
493.172	7015.75
493.275	7045.75
493.379	7009.75
493.482	7182.75
493.586	7248.75
493.689	7228.75
493.793	7056.75
493.896	7225.75
494	7235.75
494.103	7170.75
494.207	7632.75
494.31	7566.75
494.414	7165.75
494.517	7083.75
494.621	6957.75
494.724	6938.75
494.828	7005.75
494.931	6941.75
495.034	6908.75
495.138	7096.75
495.241	6723.75
495.345	7574.75
495.448	6986.75
495.551	6924.75
495.655	6868.75
495.758	6838.75
495.861	6760.75
495.965	6844.75
496.068	6975.75
496.171	7028.75
496.274	6972.75
496.378	6917.75
496.481	6996.75
496.584	7029.75
496.687	6969.75
496.791	7100.75
496.894	7237.75
496.997	7133.75
497.1	7282.75
497.204	7372.75
497.307	7296.75
497.41	7572.75
497.513	7720.75
497.616	7657.75
497.719	7612.75
497.823	7959.75
497.926	7979.75
498.029	8098.75
498.132	8288.75
498.235	8590.75
498.338	8783.75
498.441	8977.75
498.544	9360.75
498.647	9585.75
498.75	10014.75
498.853	10361.75
498.956	10600.75
499.059	11187.75
499.163	11515.75
499.266	12036.75
499.369	12523.75
499.471	13071.75
499.574	13894.75
499.677	14517.75
499.78	14574.75
499.883	14574.75
499.986	14574.75
500.089	14574.75
500.192	14574.75
500.295	14574.75
500.398	14574.75
500.501	14574.75
500.604	14574.75
500.707	14574.75
500.809	14574.75
500.912	14574.75
501.015	13845.75
501.118	12985.75
501.221	12355.75
501.324	11451.75
501.426	10998.75
501.529	10568.75
501.632	10054.75
501.735	9588.75
501.837	9342.75
501.94	8911.75
502.043	8834.75
502.146	8484.75
502.248	8291.75
502.351	8171.75
502.454	8036.75
502.557	7773.75
502.659	7555.75
502.762	7350.75
502.865	7148.75
502.967	6830.75
503.07	6848.75
503.173	6918.75
503.275	6701.75
503.378	6624.75
503.48	6472.75
503.583	6685.75
503.686	6412.75
503.788	6753.75
503.891	6569.75
503.993	6747.75
504.096	6621.75
504.198	6860.75
504.301	6745.75
504.403	6786.75
504.506	6675.75
504.608	6451.75
504.711	6224.75
504.813	6131.75
504.916	5937.75
505.018	5711.75
505.121	5497.75
505.223	5510.75
505.326	5384.75
505.428	5413.75
505.531	5295.75
505.633	5165.75
505.735	5086.75
505.838	5095.75
505.94	5075.75
506.042	4982.75
506.145	4872.75
506.247	5087.75
506.35	4859.75
506.452	4860.75
506.554	5008.75
506.656	4841.75
506.759	4739.75
506.861	4857.75
506.963	4701.75
507.066	4753.75
507.168	4876.75
507.27	4736.75
507.372	4570.75
507.475	4707.75
507.577	4699.75
507.679	4492.75
507.781	4512.75
507.883	4583.75
507.986	4569.75
508.088	4425.75
508.19	4510.75
508.292	4444.75
508.394	4389.75
508.496	4384.75
508.598	4397.75
508.701	4353.75
508.803	4463.75
508.905	4333.75
509.007	4403.75
509.109	4427.75
509.211	4508.75
509.313	4357.75
509.415	4291.75
509.517	4305.75
509.619	4279.75
509.721	4322.75
509.823	4364.75
509.925	4551.75
510.027	4250.75
510.129	4286.75
510.231	4340.75
510.333	4250.75
510.435	4293.75
510.537	4415.75
510.639	4396.75
510.741	4285.75
510.843	4403.75
510.945	4321.75
511.047	4387.75
511.148	4362.75
511.25	4278.75
511.352	4409.75
511.454	4287.75
511.556	4437.75
511.658	4214.75
511.76	4444.75
511.861	4461.75
511.963	4262.75
512.065	4220.75
512.167	4284.75
512.268	4545.75
512.37	4264.75
512.472	4336.75
512.574	4401.75
512.676	4388.75
512.777	4324.75
512.879	4379.75
512.981	4199.75
513.082	4304.75
513.184	4398.75
513.286	4901.75
513.387	4448.75
513.489	4610.75
513.591	4467.75
513.692	4489.75
513.794	4555.75
513.896	4412.75
513.997	4421.75
514.099	4465.75
514.2	4592.75
514.302	4488.75
514.404	4567.75
514.505	4675.75
514.607	4703.75
514.708	4629.75
514.81	4709.75
514.911	4772.75
515.013	4820.75
515.114	4815.75
515.216	4808.75
515.317	4827.75
515.419	4896.75
515.52	5036.75
515.622	4953.75
515.723	5038.75
515.825	5321.75
515.926	5097.75
516.027	5077.75
516.129	5280.75
516.23	5487.75
516.332	5458.75
516.433	5566.75
516.534	5813.75
516.636	5867.75
516.737	5955.75
516.838	7308.75
516.94	6321.75
517.041	6452.75
517.142	6892.75
517.244	6922.75
517.345	6788.75
517.446	6991.75
517.547	7157.75
517.649	6976.75
517.75	7084.75
517.851	6995.75
517.952	7114.75
518.054	6854.75
518.155	6878.75
518.256	6481.75
518.357	6466.75
518.458	6286.75
518.56	6098.75
518.661	6021.75
518.762	5937.75
518.863	6007.75
518.964	5820.75
519.065	5613.75
519.166	5622.75
519.268	5539.75
519.369	5753.75
519.47	5411.75
519.571	5474.75
519.672	5259.75
519.773	5298.75
519.874	5292.75
519.975	5277.75
520.076	5219.75
520.177	5357.75
520.278	5214.75
520.379	5204.75
520.48	5262.75
520.581	5236.75
520.682	5131.75
520.783	5251.75
520.884	5222.75
520.985	5141.75
521.086	5223.75
521.187	5167.75
521.288	5188.75
521.389	5070.75
521.489	5120.75
521.59	4933.75
521.691	5065.75
521.792	5037.75
521.893	5156.75
521.994	5218.75
522.095	5217.75
522.195	5117.75
522.296	5171.75
522.397	5198.75
522.498	5087.75
522.599	4936.75
522.699	5073.75
522.8	5036.75
522.901	5123.75
523.002	4999.75
523.102	5320.75
523.203	5060.75
523.304	5246.75
523.405	5132.75
523.505	5181.75
523.606	5197.75
523.707	5176.75
523.807	5090.75
523.908	5067.75
524.009	5198.75
524.109	5163.75
524.21	5128.75
524.31	5194.75
524.411	5289.75
524.512	5183.75
524.612	5174.75
524.713	5316.75
524.813	5098.75
524.914	5373.75
525.014	10360.75
525.115	5518.75
525.216	5080.75
525.316	5124.75
525.417	5154.75
525.517	5052.75
525.618	5258.75
525.718	5148.75
525.819	5176.75
525.919	5197.75
526.019	5292.75
526.12	5263.75
526.22	5201.75
526.321	5165.75
526.421	5151.75
526.522	5239.75
526.622	5145.75
526.722	5150.75
526.823	5083.75
526.923	5213.75
527.023	5416.75
527.124	5184.75
527.224	5275.75
527.324	5057.75
527.425	5276.75
527.525	5033.75
527.625	5218.75
527.726	5170.75
527.826	5266.75
527.926	5197.75
528.026	5282.75
528.127	5147.75
528.227	5245.75
528.327	5394.75
528.427	5219.75
528.528	5202.75
528.628	5307.75
528.728	5116.75
528.828	5218.75
528.928	5307.75
529.029	5148.75
529.129	5176.75
529.229	5244.75
529.329	5334.75
529.429	5177.75
529.529	5340.75
529.629	5312.75
529.729	5159.75
529.829	5338.75
529.93	5171.75
530.03	5196.75
530.13	5138.75
530.23	5202.75
530.33	5260.75
530.43	5154.75
530.53	5301.75
530.63	5246.75
530.73	5149.75
530.83	5153.75
530.93	5145.75
531.03	5095.75
531.13	5213.75
531.23	5182.75
531.33	5184.75
531.429	5195.75
531.529	5307.75
531.629	5184.75
531.729	5062.75
531.829	5081.75
531.929	5156.75
532.029	5109.75
532.129	5045.75
532.229	5171.75
532.328	4992.75
532.428	5052.75
532.528	4966.75
532.628	4938.75
532.728	5014.75
532.827	4949.75
532.927	5070.75
533.027	5043.75
533.127	5137.75
533.227	5007.75
533.326	4935.75
533.426	4944.75
533.526	5147.75
533.625	5005.75
533.725	5189.75
533.825	5020.75
533.924	4741.75
534.024	4734.75
534.124	4764.75
534.223	4906.75
534.323	5175.75
534.423	4821.75
534.522	4761.75
534.622	4617.75
534.722	4635.75
534.821	4838.75
534.921	4677.75
535.02	4560.75
535.12	4761.75
535.219	4806.75
535.319	4651.75
535.419	4666.75
535.518	4584.75
535.618	4608.75
535.717	4629.75
535.817	4460.75
535.916	4364.75
536.016	4487.75
536.115	4405.75
536.215	4422.75
536.314	4318.75
536.413	4310.75
536.513	4321.75
536.612	4361.75
536.712	4279.75
536.811	4350.75
536.91	4235.75
537.01	4182.75
537.109	4286.75
537.209	4254.75
537.308	4261.75
537.407	4234.75
537.507	4189.75
537.606	4160.75
537.705	4261.75
537.805	4191.75
537.904	4050.75
538.003	4187.75
538.102	4168.75
538.202	4110.75
538.301	4233.75
538.4	4193.75
538.499	4070.75
538.599	4128.75
538.698	4406.75
538.797	4060.75
538.896	4179.75
538.995	4159.75
539.095	3994.75
539.194	4168.75
539.293	3955.75
539.392	3999.75
539.491	4027.75
539.59	3993.75
539.689	4191.75
539.789	4058.75
539.888	3800.75
539.987	3904.75
540.086	3826.75
540.185	3998.75
540.284	4012.75
540.383	3882.75
540.482	3849.75
540.581	3906.75
540.68	3786.75
540.779	3898.75
540.878	3842.75
540.977	3882.75
541.076	3851.75
541.175	3913.75
541.274	4204.75
541.373	3888.75
541.472	3865.75
541.571	3771.75
541.67	5183.75
541.769	3908.75
541.868	3849.75
541.966	3814.75
542.065	3723.75
542.164	3805.75
542.263	3717.75
542.362	3766.75
542.461	3866.75
542.56	3838.75
542.658	3786.75
542.757	3753.75
542.856	3658.75
542.955	3723.75
543.054	3638.75
543.152	3922.75
543.251	3755.75
543.35	3878.75
543.449	3687.75
543.547	3763.75
543.646	3724.75
543.745	3740.75
543.843	3865.75
543.942	3692.75
544.041	3668.75
544.14	3762.75
544.238	3723.75
544.337	3954.75
544.436	3859.75
544.534	3899.75
544.633	3763.75
544.731	3709.75
544.83	3856.75
544.929	3829.75
545.027	3788.75
545.126	3845.75
545.224	3915.75
545.323	3843.75
545.421	3881.75
545.52	3848.75
545.619	3784.75
545.717	3872.75
545.816	3858.75
545.914	3870.75
546.013	4006.75
546.111	3978.75
546.209	3752.75
546.308	3666.75
546.406	3703.75
546.505	3961.75
546.603	3862.75
546.702	3752.75
546.8	3706.75
546.899	3704.75
546.997	3826.75
547.095	3698.75
547.194	3768.75
547.292	3727.75
547.39	3920.75
547.489	3708.75
547.587	4114.75
547.685	3846.75
547.784	4068.75
547.882	3842.75
547.98	3706.75
548.079	3839.75
548.177	3804.75
548.275	3787.75
548.373	4044.75
548.472	3735.75
548.57	3794.75
548.668	3876.75
548.766	3721.75
548.864	3949.75
548.963	3800.75
549.061	3913.75
549.159	3783.75
549.257	4036.75
549.355	3924.75
549.454	3886.75
549.552	4061.75
549.65	3896.75
549.748	3788.75
549.846	3873.75
549.944	3778.75
550.042	3685.75
550.14	3723.75
550.238	3858.75
550.336	3652.75
550.434	3700.75
550.532	3809.75
550.631	3741.75
550.729	3732.75
550.827	3906.75
550.925	3741.75
551.023	3647.75
551.121	3652.75
551.218	3731.75
551.316	3674.75
551.414	3682.75
551.512	3751.75
551.61	3767.75
551.708	3849.75
551.806	3917.75
551.904	3798.75
552.002	3661.75
552.1	3909.75
552.198	3864.75
552.296	3996.75
552.393	4189.75
552.491	4374.75
552.589	4308.75
552.687	4231.75
552.785	4394.75
552.882	4409.75
552.98	4581.75
553.078	4496.75
553.176	4423.75
553.274	4265.75
553.371	4334.75
553.469	4337.75
553.567	4185.75
553.665	4174.75
553.762	4647.75
553.86	4233.75
553.958	4048.75
554.055	4034.75
554.153	4160.75
554.251	3930.75
554.348	4032.75
554.446	3789.75
554.544	3894.75
554.641	4191.75
554.739	3857.75
554.837	3795.75
554.934	3840.75
555.032	3782.75
555.129	3627.75
555.227	4027.75
555.324	7788.75
555.422	4007.75
555.519	3718.75
555.617	3705.75
555.715	3520.75
555.812	5370.75
555.91	3672.75
556.007	3609.75
556.105	3433.75
556.202	3518.75
556.299	3463.75
556.397	3566.75
556.494	3438.75
556.592	3560.75
556.689	3536.75
556.787	3467.75
556.884	3478.75
556.981	3473.75
557.079	3376.75
557.176	3445.75
557.273	3460.75
557.371	3469.75
557.468	3455.75
557.566	3442.75
557.663	3374.75
557.76	3494.75
557.857	3458.75
557.955	3405.75
558.052	3535.75
558.149	3631.75
558.247	3581.75
558.344	3328.75
558.441	3421.75
558.538	3448.75
558.636	3461.75
558.733	3497.75
558.83	3531.75
558.927	3395.75
559.024	3455.75
559.122	3493.75
559.219	3434.75
559.316	3509.75
559.413	3612.75
559.51	3385.75
559.607	3476.75
559.704	3490.75
559.801	3552.75
559.899	3455.75
559.996	3698.75
560.093	3609.75
560.19	3469.75
560.287	3555.75
560.384	3683.75
560.481	3486.75
560.578	3519.75
560.675	3520.75
560.772	3618.75
560.869	3580.75
560.966	3694.75
561.063	3573.75
561.16	3648.75
561.257	3655.75
561.354	3647.75
561.451	3592.75
561.548	3630.75
561.645	3879.75
561.742	3636.75
561.838	3499.75
561.935	3675.75
562.032	3613.75
562.129	3625.75
562.226	3672.75
562.323	3666.75
562.42	3718.75
562.516	3638.75
562.613	3664.75
562.71	3662.75
562.807	4515.75
562.904	3760.75
563	3713.75
563.097	3734.75
563.194	3832.75
563.291	3740.75
563.387	3761.75
563.484	3745.75
563.581	3792.75
563.678	3756.75
563.774	4293.75
563.871	4043.75
563.968	3950.75
564.064	4017.75
564.161	3979.75
564.258	3944.75
564.354	4155.75
564.451	4158.75
564.548	4209.75
564.644	4227.75
564.741	4289.75
564.837	4204.75
564.934	4275.75
565.031	4436.75
565.127	4476.75
565.224	4606.75
565.32	4905.75
565.417	4769.75
565.513	4812.75
565.61	5019.75
565.706	5270.75
565.803	5216.75
565.899	5147.75
565.996	5580.75
566.092	5767.75
566.189	5952.75
566.285	6225.75
566.382	6485.75
566.478	6715.75
566.574	6898.75
566.671	6931.75
566.767	6808.75
566.864	6819.75
566.96	7032.75
567.056	6930.75
567.153	7353.75
567.249	7436.75
567.345	7669.75
567.442	8087.75
567.538	8137.75
567.634	8405.75
567.731	8440.75
567.827	8423.75
567.923	8354.75
568.019	7809.75
568.116	7381.75
568.212	7015.75
568.308	6775.75
568.404	6590.75
568.501	6146.75
568.597	6057.75
568.693	5680.75
568.789	6308.75
568.885	5307.75
568.982	5169.75
569.078	4997.75
569.174	5017.75
569.27	4710.75
569.366	4830.75
569.462	4602.75
569.558	4431.75
569.655	4449.75
569.751	4435.75
569.847	4340.75
569.943	4276.75
570.039	4151.75
570.135	4820.75
570.231	4252.75
570.327	4353.75
570.423	4485.75
570.519	4408.75
570.615	4219.75
570.711	4486.75
570.807	4445.75
570.903	4321.75
570.999	4269.75
571.095	4329.75
571.191	4161.75
571.287	4154.75
571.383	4117.75
571.479	3975.75
571.574	4006.75
571.67	3858.75
571.766	3961.75
571.862	3780.75
571.958	3743.75
572.054	3771.75
572.15	3603.75
572.246	3619.75
572.341	3687.75
572.437	3456.75
572.533	3608.75
572.629	3639.75
572.725	3459.75
572.82	3499.75
572.916	3618.75
573.012	3425.75
573.108	3571.75
573.203	3493.75
573.299	3373.75
573.395	3311.75
573.49	3360.75
573.586	3309.75
573.682	3388.75
573.778	3584.75
573.873	3321.75
573.969	3302.75
574.065	3296.75
574.16	3364.75
574.256	3301.75
574.351	3454.75
574.447	3380.75
574.543	3298.75
574.638	3378.75
574.734	3332.75
574.829	3473.75
574.925	3268.75
575.02	3260.75
575.116	3180.75
575.212	3210.75
575.307	3342.75
575.403	3174.75
575.498	3095.75
575.594	3101.75
575.689	3186.75
575.784	3181.75
575.88	3149.75
575.975	3132.75
576.071	3087.75
576.166	2982.75
576.262	3037.75
576.357	3023.75
576.452	3149.75
576.548	3003.75
576.643	3126.75
576.739	2974.75
576.834	3038.75
576.929	3066.75
577.025	3714.75
577.12	2920.75
577.215	2942.75
577.311	2947.75
577.406	2980.75
577.501	3013.75
577.597	2790.75
577.692	2985.75
577.787	2957.75
577.882	2852.75
577.978	2909.75
578.073	2730.75
578.168	2784.75
578.263	2725.75
578.358	2728.75
578.454	2764.75
578.549	2703.75
578.644	2736.75
578.739	2784.75
578.834	2690.75
578.929	2624.75
579.025	2674.75
579.12	2798.75
579.215	2968.75
579.31	2879.75
579.405	2641.75
579.5	2685.75
579.595	2604.75
579.69	2560.75
579.785	2629.75
579.88	2586.75
579.975	2582.75
580.07	2571.75
580.165	2580.75
580.26	2745.75
580.355	2554.75
580.45	2476.75
580.545	2501.75
580.64	2494.75
580.735	2599.75
580.83	2608.75
580.925	2425.75
581.02	2409.75
581.115	2420.75
581.21	2335.75
581.305	2517.75
581.4	2523.75
581.495	2421.75
581.589	2453.75
581.684	2352.75
581.779	2490.75
581.874	2458.75
581.969	2398.75
582.064	2312.75
582.158	2419.75
582.253	2347.75
582.348	2439.75
582.443	2433.75
582.537	2505.75
582.632	2568.75
582.727	2399.75
582.822	2391.75
582.916	2345.75
583.011	2347.75
583.106	2468.75
583.201	2273.75
583.295	2358.75
583.39	2322.75
583.485	2259.75
583.579	4277.75
583.674	2407.75
583.769	2572.75
583.863	2277.75
583.958	2290.75
584.052	2268.75
584.147	2239.75
584.242	2170.75
584.336	2275.75
584.431	2455.75
584.525	2180.75
584.62	2464.75
584.714	2345.75
584.809	2202.75
584.903	2219.75
584.998	2230.75
585.092	2174.75
585.187	2246.75
585.281	2191.75
585.376	2183.75
585.47	2204.75
585.565	2246.75
585.659	2093.75
585.754	2119.75
585.848	2221.75
585.942	2203.75
586.037	2145.75
586.131	4584.75
586.226	2356.75
586.32	2221.75
586.414	2020.75
586.509	2355.75
586.603	2256.75
586.697	2140.75
586.792	2104.75
586.886	2034.75
586.98	2225.75
587.075	2126.75
587.169	2083.75
587.263	2248.75
587.357	2159.75
587.452	2133.75
587.546	2174.75
587.64	2052.75
587.734	2225.75
587.829	2228.75
587.923	2138.75
588.017	2214.75
588.111	2123.75
588.205	2216.75
588.3	2248.75
588.394	2236.75
588.488	2289.75
588.582	2541.75
588.676	3037.75
588.77	5163.75
588.864	11111.75
588.958	11209.75
589.052	7681.75
589.147	4707.75
589.241	3552.75
589.335	3622.75
589.429	7271.75
589.523	8976.75
589.617	7014.75
589.711	4329.75
589.805	3040.75
589.899	2728.75
589.993	2275.75
590.087	2181.75
590.181	2243.75
590.275	2175.75
590.369	2070.75
590.462	2084.75
590.556	2069.75
590.65	2073.75
590.744	2138.75
590.838	2072.75
590.932	2092.75
591.026	2164.75
591.12	2368.75
591.214	2137.75
591.307	2209.75
591.401	2171.75
591.495	2216.75
591.589	2131.75
591.683	2233.75
591.777	2178.75
591.87	2602.75
591.964	2254.75
592.058	2248.75
592.152	2275.75
592.245	2342.75
592.339	2437.75
592.433	2451.75
592.527	2376.75
592.62	2471.75
592.714	2507.75
592.808	2526.75
592.901	2592.75
592.995	2506.75
593.089	2797.75
593.182	2695.75
593.276	2586.75
593.37	2540.75
593.463	2650.75
593.557	2639.75
593.65	2546.75
593.744	2597.75
593.837	2794.75
593.931	2689.75
594.025	5886.75
594.118	2904.75
594.212	2553.75
594.305	2486.75
594.399	2532.75
594.492	2811.75
594.586	2323.75
594.679	2201.75
594.773	2294.75
594.866	2322.75
594.96	2187.75
595.053	2170.75
595.146	2144.75
595.24	2123.75
595.333	2087.75
595.427	1983.75
595.52	1965.75
595.614	2173.75
595.707	2013.75
595.8	1895.75
595.894	1867.75
595.987	1865.75
596.08	1812.75
596.174	2243.75
596.267	2016.75
596.36	1930.75
596.454	1949.75
596.547	1957.75
596.64	1775.75
596.733	1645.75
596.827	1818.75
596.92	1756.75
597.013	1616.75
597.106	1636.75
597.2	1687.75
597.293	1658.75
597.386	1882.75
597.479	1736.75
597.572	1686.75
597.666	1628.75
597.759	1661.75
597.852	1742.75
597.945	1573.75
598.038	1612.75
598.131	1654.75
598.224	1589.75
598.317	1767.75
598.411	1684.75
598.504	1573.75
598.597	1704.75
598.69	1615.75
598.783	1585.75
598.876	1611.75
598.969	1668.75
599.062	1582.75
599.155	1636.75
599.248	1564.75
599.341	1658.75
599.434	1529.75
599.527	1646.75
599.62	1626.75
599.713	1511.75
599.806	1618.75
599.899	1777.75
599.991	1587.75
600.084	1879.75
600.177	1594.75
600.27	1545.75
600.363	1715.75
600.456	1546.75
600.549	1666.75
600.642	1447.75
600.734	1504.75
600.827	1571.75
600.92	1616.75
601.013	1607.75
601.106	1717.75
601.199	1422.75
601.291	1477.75
601.384	1475.75
601.477	1737.75
601.57	1561.75
601.662	1536.75
601.755	1559.75
601.848	1549.75
601.94	1442.75
602.033	1676.75
602.126	1556.75
602.219	1472.75
602.311	1657.75
602.404	1440.75
602.497	1500.75
602.589	1501.75
602.682	1532.75
602.774	1511.75
602.867	1561.75
602.96	1533.75
603.052	1454.75
603.145	1432.75
603.237	1504.75
603.33	1445.75
603.422	1586.75
603.515	1464.75
603.608	1478.75
603.7	1507.75
603.793	1478.75
603.885	1517.75
603.978	1491.75
604.07	1462.75
604.163	1454.75
604.255	1508.75
604.347	1361.75
604.44	1441.75
604.532	1437.75
604.625	1462.75
604.717	1418.75
604.81	1472.75
604.902	1412.75
604.994	1393.75
605.087	1435.75
605.179	1374.75
605.271	1464.75
605.364	1443.75
605.456	1462.75
605.548	1402.75
605.641	1474.75
605.733	1353.75
605.825	1451.75
605.918	1394.75
606.01	1584.75
606.102	1824.75
606.194	1421.75
606.287	1565.75
606.379	1388.75
606.471	1476.75
606.563	1497.75
606.655	1478.75
606.748	1489.75
606.84	1457.75
606.932	1461.75
607.024	1372.75
607.116	1369.75
607.208	1390.75
607.301	1411.75
607.393	1407.75
607.485	1387.75
607.577	1526.75
607.669	1514.75
607.761	1452.75
607.853	1689.75
607.945	1393.75
608.037	1345.75
608.129	1371.75
608.221	1344.75
608.313	1392.75
608.405	1452.75
608.497	1365.75
608.589	1407.75
608.681	1417.75
608.773	1482.75
608.865	1447.75
608.957	1419.75
609.049	1312.75
609.141	1466.75
609.233	1395.75
609.325	1332.75
609.417	1380.75
609.509	1441.75
609.601	1507.75
609.693	1488.75
609.784	1389.75
609.876	1396.75
609.968	1445.75
610.06	3699.75
610.152	1657.75
610.244	1623.75
610.335	1351.75
610.427	1360.75
610.519	1428.75
610.611	1384.75
610.702	1370.75
610.794	1358.75
610.886	1388.75
610.978	1367.75
611.069	1812.75
611.161	1361.75
611.253	1442.75
611.344	1294.75
611.436	1219.75
611.528	1287.75
611.62	1220.75
611.711	1220.75
611.803	1201.75
611.894	1194.75
611.986	1131.75
612.078	1173.75
612.169	1191.75
612.261	1175.75
612.352	1094.75
612.444	1122.75
612.536	1227.75
612.627	1060.75
612.719	1003.75
612.81	1001.75
612.902	962.75
612.993	1041.75
613.085	1030.75
613.176	861.75
613.268	931.75
613.359	985.75
613.451	903.75
613.542	964.75
613.634	880.75
613.725	923.75
613.816	967.75
613.908	823.75
613.999	876.75
614.091	742.75
614.182	736.75
614.273	877.75
614.365	701.75
614.456	634.75
614.547	731.75
614.639	642.75
614.73	681.75
614.821	768.75
614.913	593.75
615.004	521.75
615.095	556.75
615.187	605.75
