Data from 28g_HRC06701__50__416.txt Node

Date: Thu Apr 18 02:21:21 CDT 2024
User: Estudiantes 2
Spectrometer: HR+C0670
Trigger mode: 4
Integration Time (sec): 1.000000E0
Scans to average: 1
Electric dark correction enabled: true
Nonlinearity correction enabled: false
Boxcar width: 0
XAxis mode: Wavelengths
Number of Pixels in Spectrum: 2048
>>>>>Begin Spectral Data<<<<<
407.81	-149.19
407.921	-149.19
408.032	-149.19
408.143	-93.19
408.254	-156.19
408.365	25.81
408.476	315.81
408.587	-43.19
408.699	-1.19
408.81	8.81
408.921	-52.19
409.032	-39.19
409.143	35.81
409.254	24.81
409.365	71.81
409.476	-62.19
409.587	38.81
409.698	74.81
409.809	97.81
409.92	-0.19
410.031	-42.19
410.142	40.81
410.253	66.81
410.364	52.81
410.475	44.81
410.585	537.81
410.696	646.81
410.807	596.81
410.918	572.81
411.029	691.81
411.14	605.81
411.251	545.81
411.362	654.81
411.472	643.81
411.583	640.81
411.694	713.81
411.805	610.81
411.916	591.81
412.026	700.81
412.137	610.81
412.248	566.81
412.359	582.81
412.47	621.81
412.58	548.81
412.691	639.81
412.802	649.81
412.912	619.81
413.023	579.81
413.134	605.81
413.245	676.81
413.355	601.81
413.466	585.81
413.577	599.81
413.687	721.81
413.798	543.81
413.909	697.81
414.019	582.81
414.13	609.81
414.24	653.81
414.351	616.81
414.462	799.81
414.572	695.81
414.683	666.81
414.793	574.81
414.904	972.81
415.014	623.81
415.125	546.81
415.235	611.81
415.346	777.81
415.456	764.81
415.567	649.81
415.677	679.81
415.788	642.81
415.898	582.81
416.009	616.81
416.119	659.81
416.23	603.81
416.34	582.81
416.45	664.81
416.561	1400.81
416.671	793.81
416.782	598.81
416.892	601.81
417.002	635.81
417.113	737.81
417.223	646.81
417.333	604.81
417.444	623.81
417.554	725.81
417.664	690.81
417.775	608.81
417.885	708.81
417.995	645.81
418.106	821.81
418.216	776.81
418.326	679.81
418.436	701.81
418.547	730.81
418.657	642.81
418.767	790.81
418.877	747.81
418.987	717.81
419.098	708.81
419.208	718.81
419.318	815.81
419.428	796.81
419.538	692.81
419.648	795.81
419.759	765.81
419.869	757.81
419.979	751.81
420.089	745.81
420.199	677.81
420.309	752.81
420.419	756.81
420.529	700.81
420.639	1190.81
420.749	847.81
420.859	752.81
420.969	740.81
421.079	1046.81
421.189	834.81
421.299	784.81
421.409	739.81
421.519	807.81
421.629	863.81
421.739	794.81
421.849	690.81
421.959	622.81
422.069	775.81
422.179	803.81
422.289	703.81
422.399	782.81
422.509	961.81
422.619	3404.81
422.729	1087.81
422.838	807.81
422.948	843.81
423.058	808.81
423.168	842.81
423.278	857.81
423.388	840.81
423.498	939.81
423.607	921.81
423.717	1143.81
423.827	1162.81
423.937	981.81
424.046	976.81
424.156	994.81
424.266	973.81
424.376	1075.81
424.485	1035.81
424.595	915.81
424.705	901.81
424.815	893.81
424.924	1345.81
425.034	1024.81
425.144	881.81
425.253	902.81
425.363	1040.81
425.473	968.81
425.582	871.81
425.692	950.81
425.801	841.81
425.911	1055.81
426.021	995.81
426.13	1025.81
426.24	1145.81
426.349	1012.81
426.459	1018.81
426.568	883.81
426.678	1089.81
426.787	1040.81
426.897	912.81
427.006	968.81
427.116	1029.81
427.225	935.81
427.335	1049.81
427.444	1051.81
427.554	1069.81
427.663	989.81
427.773	977.81
427.882	1058.81
427.992	921.81
428.101	1002.81
428.21	980.81
428.32	1048.81
428.429	972.81
428.539	1277.81
428.648	995.81
428.757	1060.81
428.867	1082.81
428.976	1200.81
429.085	1042.81
429.195	1056.81
429.304	1089.81
429.413	1075.81
429.523	1072.81
429.632	1164.81
429.741	1057.81
429.85	1010.81
429.96	1130.81
430.069	1062.81
430.178	1045.81
430.287	1410.81
430.397	1065.81
430.506	1028.81
430.615	1051.81
430.724	1157.81
430.833	1105.81
430.943	1090.81
431.052	1131.81
431.161	1104.81
431.27	1165.81
431.379	1215.81
431.488	1299.81
431.597	1272.81
431.706	1314.81
431.816	1213.81
431.925	1190.81
432.034	1168.81
432.143	1295.81
432.252	1212.81
432.361	1307.81
432.47	1269.81
432.579	1168.81
432.688	1175.81
432.797	1271.81
432.906	1143.81
433.015	1233.81
433.124	1609.81
433.233	1264.81
433.342	1213.81
433.451	1211.81
433.56	1247.81
433.669	1222.81
433.778	1227.81
433.886	1339.81
433.995	1253.81
434.104	1429.81
434.213	1321.81
434.322	1224.81
434.431	1404.81
434.54	1418.81
434.649	1585.81
434.757	1492.81
434.866	1449.81
434.975	1503.81
435.084	1423.81
435.193	1347.81
435.301	1612.81
435.41	1629.81
435.519	1699.81
435.628	1276.81
435.737	1156.81
435.845	1161.81
435.954	1150.81
436.063	1202.81
436.171	1119.81
436.28	1214.81
436.389	1284.81
436.498	1154.81
436.606	1223.81
436.715	1402.81
436.823	1110.81
436.932	1084.81
437.041	1135.81
437.149	1169.81
437.258	1093.81
437.367	1075.81
437.475	1117.81
437.584	1335.81
437.692	1090.81
437.801	2664.81
437.91	1213.81
438.018	1044.81
438.127	1067.81
438.235	1109.81
438.344	1033.81
438.452	1109.81
438.561	989.81
438.669	1032.81
438.778	991.81
438.886	1040.81
438.995	1013.81
439.103	1048.81
439.212	1077.81
439.32	1028.81
439.428	1004.81
439.537	1078.81
439.645	1121.81
439.754	1102.81
439.862	1131.81
439.97	1082.81
440.079	1055.81
440.187	1064.81
440.295	1210.81
440.404	1068.81
440.512	1084.81
440.62	1187.81
440.729	1135.81
440.837	1196.81
440.945	1869.81
441.054	1195.81
441.162	1172.81
441.27	1324.81
441.378	1232.81
441.487	1254.81
441.595	1698.81
441.703	1368.81
441.811	1293.81
441.92	1202.81
442.028	1204.81
442.136	1202.81
442.244	1272.81
442.352	1248.81
442.461	1109.81
442.569	1057.81
442.677	1161.81
442.785	1178.81
442.893	1187.81
443.001	1123.81
443.109	1133.81
443.217	1138.81
443.325	1118.81
443.434	1763.81
443.542	1463.81
443.65	1215.81
443.758	1414.81
443.866	1225.81
443.974	1535.81
444.082	1370.81
444.19	1379.81
444.298	1429.81
444.406	1577.81
444.514	1525.81
444.622	1550.81
444.73	1559.81
444.838	1503.81
444.946	1460.81
445.054	1356.81
445.161	1359.81
445.269	1239.81
445.377	1219.81
445.485	1248.81
445.593	1237.81
445.701	1452.81
445.809	1310.81
445.917	1245.81
446.025	1150.81
446.132	1281.81
446.24	1255.81
446.348	1212.81
446.456	1086.81
446.564	1178.81
446.671	1184.81
446.779	1133.81
446.887	1173.81
446.995	1098.81
447.102	1183.81
447.21	1174.81
447.318	1181.81
447.426	1098.81
447.533	1374.81
447.641	2472.81
447.749	1265.81
447.856	1119.81
447.964	1170.81
448.072	1239.81
448.179	1124.81
448.287	1217.81
448.395	1152.81
448.502	1088.81
448.61	1207.81
448.718	1161.81
448.825	1186.81
448.933	1100.81
449.04	1124.81
449.148	1171.81
449.256	1179.81
449.363	1250.81
449.471	1173.81
449.578	1269.81
449.686	1198.81
449.793	1275.81
449.901	1142.81
450.008	1215.81
450.116	1286.81
450.223	1190.81
450.331	1312.81
450.438	1295.81
450.546	1254.81
450.653	1355.81
450.76	1360.81
450.868	1370.81
450.975	1566.81
451.083	1420.81
451.19	1433.81
451.297	1388.81
451.405	1404.81
451.512	1361.81
451.619	1473.81
451.727	1476.81
451.834	1384.81
451.941	1414.81
452.049	1362.81
452.156	1388.81
452.263	1410.81
452.371	1328.81
452.478	1424.81
452.585	1501.81
452.692	1392.81
452.8	1436.81
452.907	1611.81
453.014	1465.81
453.121	1389.81
453.229	1473.81
453.336	1504.81
453.443	1466.81
453.55	1434.81
453.657	1444.81
453.765	1459.81
453.872	1479.81
453.979	1503.81
454.086	1418.81
454.193	1481.81
454.3	1484.81
454.407	1592.81
454.514	1649.81
454.621	1478.81
454.729	1433.81
454.836	1447.81
454.943	1583.81
455.05	1577.81
455.157	1607.81
455.264	1476.81
455.371	1547.81
455.478	1445.81
455.585	2817.81
455.692	1701.81
455.799	1630.81
455.906	1502.81
456.013	1567.81
456.12	1498.81
456.227	1537.81
456.334	1595.81
456.44	1616.81
456.547	1540.81
456.654	1524.81
456.761	1629.81
456.868	1696.81
456.975	1652.81
457.082	1606.81
457.189	1512.81
457.296	1585.81
457.402	1645.81
457.509	1521.81
457.616	1607.81
457.723	1920.81
457.83	1662.81
457.936	1687.81
458.043	2038.81
458.15	1755.81
458.257	1764.81
458.363	1782.81
458.47	1760.81
458.577	1926.81
458.684	1823.81
458.79	2062.81
458.897	2029.81
459.004	2059.81
459.11	2083.81
459.217	1970.81
459.324	2096.81
459.43	2264.81
459.537	2375.81
459.644	2235.81
459.75	2130.81
459.857	2583.81
459.964	2274.81
460.07	2364.81
460.177	2396.81
460.283	2435.81
460.39	2551.81
460.496	2513.81
460.603	2459.81
460.71	2420.81
460.816	2403.81
460.923	2367.81
461.029	2333.81
461.136	2425.81
461.242	2333.81
461.349	2305.81
461.455	2338.81
461.562	2756.81
461.668	2453.81
461.774	2420.81
461.881	2591.81
461.987	2511.81
462.094	2681.81
462.2	2627.81
462.307	2650.81
462.413	2600.81
462.519	2683.81
462.626	3077.81
462.732	2977.81
462.838	3196.81
462.945	3408.81
463.051	3288.81
463.157	3143.81
463.264	3074.81
463.37	2928.81
463.476	2847.81
463.583	2754.81
463.689	2729.81
463.795	2788.81
463.901	2841.81
464.008	2995.81
464.114	2777.81
464.22	2807.81
464.326	2779.81
464.433	2615.81
464.539	2609.81
464.645	2578.81
464.751	2715.81
464.857	2479.81
464.963	2312.81
465.07	2316.81
465.176	2156.81
465.282	2091.81
465.388	2194.81
465.494	1926.81
465.6	1942.81
465.706	1927.81
465.812	1748.81
465.918	1920.81
466.024	1803.81
466.131	1812.81
466.237	1704.81
466.343	1650.81
466.449	1639.81
466.555	1562.81
466.661	1596.81
466.767	1592.81
466.873	1599.81
466.979	1823.81
467.085	1686.81
467.191	1577.81
467.296	1576.81
467.402	1643.81
467.508	1604.81
467.614	1684.81
467.72	1549.81
467.826	1500.81
467.932	1522.81
468.038	1492.81
468.144	1504.81
468.25	1451.81
468.355	1396.81
468.461	1493.81
468.567	1397.81
468.673	1413.81
468.779	1445.81
468.885	1447.81
468.99	1394.81
469.096	1446.81
469.202	1535.81
469.308	1535.81
469.413	1589.81
469.519	1550.81
469.625	1506.81
469.731	1573.81
469.836	1568.81
469.942	1701.81
470.048	1573.81
470.153	1589.81
470.259	1544.81
470.365	1687.81
470.47	1651.81
470.576	1568.81
470.682	1485.81
470.787	1584.81
470.893	1471.81
470.999	1471.81
471.104	1460.81
471.21	1408.81
471.315	1298.81
471.421	1305.81
471.527	1579.81
471.632	1406.81
471.738	1350.81
471.843	1303.81
471.949	1382.81
472.054	1306.81
472.16	1292.81
472.265	1297.81
472.371	1145.81
472.476	1252.81
472.582	1380.81
472.687	1230.81
472.793	1174.81
472.898	1247.81
473.003	1171.81
473.109	1159.81
473.214	1210.81
473.32	1195.81
473.425	1247.81
473.53	1200.81
473.636	1229.81
473.741	1176.81
473.847	1127.81
473.952	1273.81
474.057	1228.81
474.163	1246.81
474.268	1170.81
474.373	1207.81
474.478	1140.81
474.584	1215.81
474.689	1215.81
474.794	1213.81
474.9	1395.81
475.005	1171.81
475.11	1284.81
475.215	1146.81
475.321	1256.81
475.426	1368.81
475.531	1294.81
475.636	1205.81
475.741	1154.81
475.846	1325.81
475.952	1439.81
476.057	1302.81
476.162	1292.81
476.267	1332.81
476.372	1571.81
476.477	1184.81
476.582	1343.81
476.687	1223.81
476.793	1229.81
476.898	1192.81
477.003	1356.81
477.108	1291.81
477.213	1204.81
477.318	1342.81
477.423	1375.81
477.528	1435.81
477.633	1444.81
477.738	1401.81
477.843	1334.81
477.948	1432.81
478.053	1489.81
478.158	1346.81
478.263	1456.81
478.368	1425.81
478.473	1535.81
478.578	1515.81
478.682	1496.81
478.787	1550.81
478.892	1495.81
478.997	1598.81
479.102	1534.81
479.207	1491.81
479.312	1636.81
479.417	1544.81
479.521	1457.81
479.626	1619.81
479.731	1576.81
479.836	1514.81
479.941	1699.81
480.045	1730.81
480.15	1731.81
480.255	1653.81
480.36	1595.81
480.465	1714.81
480.569	1810.81
480.674	1560.81
480.779	1521.81
480.883	1512.81
480.988	1565.81
481.093	1601.81
481.197	1485.81
481.302	1552.81
481.407	1671.81
481.511	2852.81
481.616	1615.81
481.721	1532.81
481.825	1719.81
481.93	1460.81
482.035	1504.81
482.139	1619.81
482.244	1506.81
482.348	1546.81
482.453	1554.81
482.557	1555.81
482.662	1543.81
482.767	1485.81
482.871	1563.81
482.976	1525.81
483.08	1608.81
483.185	1751.81
483.289	1561.81
483.394	1534.81
483.498	1701.81
483.603	1587.81
483.707	1623.81
483.811	1717.81
483.916	1667.81
484.02	1669.81
484.125	1799.81
484.229	1739.81
484.333	1761.81
484.438	1721.81
484.542	1695.81
484.647	1629.81
484.751	1749.81
484.855	1805.81
484.96	1753.81
485.064	1737.81
485.168	1874.81
485.273	1847.81
485.377	1833.81
485.481	2132.81
485.585	1903.81
485.69	1819.81
485.794	1858.81
485.898	1933.81
486.002	1860.81
486.107	1919.81
486.211	1933.81
486.315	1839.81
486.419	1974.81
486.524	1973.81
486.628	1845.81
486.732	1928.81
486.836	1908.81
486.94	1951.81
487.044	1919.81
487.148	1898.81
487.253	1859.81
487.357	1888.81
487.461	2105.81
487.565	1968.81
487.669	1961.81
487.773	1890.81
487.877	2037.81
487.981	1996.81
488.085	2005.81
488.189	1976.81
488.293	2058.81
488.397	2339.81
488.501	1959.81
488.605	1984.81
488.709	1859.81
488.813	1858.81
488.917	1964.81
489.021	1931.81
489.125	2189.81
489.229	1982.81
489.333	2083.81
489.437	1912.81
489.541	2008.81
489.645	1974.81
489.749	1935.81
489.853	2051.81
489.956	1978.81
490.06	1956.81
490.164	1947.81
490.268	1981.81
490.372	1949.81
490.476	1933.81
490.579	2021.81
490.683	2520.81
490.787	2032.81
490.891	1968.81
490.995	1957.81
491.098	1949.81
491.202	1922.81
491.306	2040.81
491.41	2000.81
491.513	1882.81
491.617	1989.81
491.721	2086.81
491.824	2165.81
491.928	2012.81
492.032	2241.81
492.136	1960.81
492.239	1944.81
492.343	2009.81
492.446	2368.81
492.55	2058.81
492.654	1941.81
492.757	1879.81
492.861	2033.81
492.965	2004.81
493.068	1982.81
493.172	1983.81
493.275	1987.81
493.379	1928.81
493.482	2065.81
493.586	2159.81
493.689	2203.81
493.793	1987.81
493.896	2163.81
494	2091.81
494.103	2147.81
494.207	2316.81
494.31	2417.81
494.414	2062.81
494.517	2047.81
494.621	2051.81
494.724	2039.81
494.828	1955.81
494.931	1970.81
495.034	1935.81
495.138	2128.81
495.241	1932.81
495.345	2819.81
495.448	2091.81
495.551	1932.81
495.655	1929.81
495.758	1887.81
495.861	1913.81
495.965	1929.81
496.068	1959.81
496.171	2023.81
496.274	1951.81
496.378	1938.81
496.481	2009.81
496.584	2046.81
496.687	2036.81
496.791	2002.81
496.894	2107.81
496.997	2051.81
497.1	1965.81
497.204	2025.81
497.307	2037.81
497.41	2199.81
497.513	2343.81
497.616	2169.81
497.719	2120.81
497.823	2203.81
497.926	2208.81
498.029	2411.81
498.132	2341.81
498.235	2378.81
498.338	2543.81
498.441	2653.81
498.544	2531.81
498.647	2757.81
498.75	2934.81
498.853	3059.81
498.956	3013.81
499.059	3344.81
499.163	3323.81
499.266	3507.81
499.369	3669.81
499.471	3785.81
499.574	4012.81
499.677	4336.81
499.78	4562.81
499.883	4773.81
499.986	5297.81
500.089	5397.81
500.192	5523.81
500.295	5600.81
500.398	5577.81
500.501	5351.81
500.604	5168.81
500.707	4971.81
500.809	4661.81
500.912	4448.81
501.015	4217.81
501.118	3878.81
501.221	3708.81
501.324	3444.81
501.426	3250.81
501.529	2999.81
501.632	2939.81
501.735	2691.81
501.837	2635.81
501.94	2538.81
502.043	2558.81
502.146	2435.81
502.248	2390.81
502.351	2399.81
502.454	2260.81
502.557	2194.81
502.659	2231.81
502.762	2091.81
502.865	1952.81
502.967	1954.81
503.07	2012.81
503.173	1939.81
503.275	1835.81
503.378	1916.81
503.48	1840.81
503.583	1923.81
503.686	1862.81
503.788	2120.81
503.891	1876.81
503.993	2113.81
504.096	1876.81
504.198	1891.81
504.301	1844.81
504.403	2002.81
504.506	1898.81
504.608	1794.81
504.711	1761.81
504.813	1738.81
504.916	1700.81
505.018	1702.81
505.121	1548.81
505.223	1602.81
505.326	1616.81
505.428	1628.81
505.531	1474.81
505.633	1547.81
505.735	1488.81
505.838	1420.81
505.94	1453.81
506.042	1417.81
506.145	1355.81
506.247	1502.81
506.35	1392.81
506.452	1484.81
506.554	1448.81
506.656	1516.81
506.759	1360.81
506.861	1370.81
506.963	1376.81
507.066	1409.81
507.168	1491.81
507.27	1332.81
507.372	1363.81
507.475	1312.81
507.577	1365.81
507.679	1357.81
507.781	1245.81
507.883	1302.81
507.986	1274.81
508.088	1292.81
508.19	1275.81
508.292	1290.81
508.394	1279.81
508.496	1219.81
508.598	1306.81
508.701	1349.81
508.803	1271.81
508.905	1279.81
509.007	1270.81
509.109	1319.81
509.211	1319.81
509.313	1248.81
509.415	1193.81
509.517	1237.81
509.619	1199.81
509.721	1277.81
509.823	1288.81
509.925	1381.81
510.027	1247.81
510.129	1271.81
510.231	1243.81
510.333	1228.81
510.435	1190.81
510.537	1282.81
510.639	1354.81
510.741	1231.81
510.843	1270.81
510.945	1190.81
511.047	1311.81
511.148	1304.81
511.25	1182.81
511.352	1288.81
511.454	1171.81
511.556	1285.81
511.658	1279.81
511.76	1289.81
511.861	1367.81
511.963	1219.81
512.065	1276.81
512.167	1185.81
512.268	1413.81
512.37	1284.81
512.472	1201.81
512.574	1344.81
512.676	1387.81
512.777	1161.81
512.879	1224.81
512.981	1241.81
513.082	1254.81
513.184	1254.81
513.286	1739.81
513.387	1395.81
513.489	1414.81
513.591	1337.81
513.692	1349.81
513.794	1317.81
513.896	1183.81
513.997	1306.81
514.099	1250.81
514.2	1304.81
514.302	1326.81
514.404	1237.81
514.505	1230.81
514.607	1333.81
514.708	1312.81
514.81	1350.81
514.911	1376.81
515.013	1419.81
515.114	1385.81
515.216	1363.81
515.317	1428.81
515.419	1363.81
515.52	1473.81
515.622	1484.81
515.723	1388.81
515.825	1540.81
515.926	1491.81
516.027	1474.81
516.129	1489.81
516.23	1554.81
516.332	1597.81
516.433	1587.81
516.534	1741.81
516.636	1686.81
516.737	1620.81
516.838	2710.81
516.94	1969.81
517.041	1840.81
517.142	2001.81
517.244	2103.81
517.345	2027.81
517.446	2040.81
517.547	2039.81
517.649	1974.81
517.75	2028.81
517.851	2006.81
517.952	2279.81
518.054	1985.81
518.155	2039.81
518.256	1844.81
518.357	1934.81
518.458	1772.81
518.56	1679.81
518.661	1726.81
518.762	1712.81
518.863	1802.81
518.964	1740.81
519.065	1606.81
519.166	1586.81
519.268	1569.81
519.369	1795.81
519.47	1553.81
519.571	1590.81
519.672	1504.81
519.773	1483.81
519.874	1567.81
519.975	1604.81
520.076	1489.81
520.177	1619.81
520.278	1545.81
520.379	1477.81
520.48	1353.81
520.581	1516.81
520.682	1465.81
520.783	1430.81
520.884	1580.81
520.985	1519.81
521.086	1452.81
521.187	1544.81
521.288	1487.81
521.389	1442.81
521.489	1383.81
521.59	1423.81
521.691	1404.81
521.792	1403.81
521.893	1620.81
521.994	1573.81
522.095	1532.81
522.195	1580.81
522.296	1585.81
522.397	1540.81
522.498	1508.81
522.599	1361.81
522.699	1413.81
522.8	1463.81
522.901	1581.81
523.002	1435.81
523.102	1650.81
523.203	1539.81
523.304	1616.81
523.405	1417.81
523.505	1511.81
523.606	1515.81
523.707	1473.81
523.807	1516.81
523.908	1506.81
524.009	1612.81
524.109	1486.81
524.21	1480.81
524.31	1571.81
524.411	1596.81
524.512	1680.81
524.612	1512.81
524.713	1671.81
524.813	1519.81
524.914	1734.81
525.014	6582.81
525.115	1921.81
525.216	1483.81
525.316	1484.81
525.417	1559.81
525.517	1537.81
525.618	1479.81
525.718	1495.81
525.819	1473.81
525.919	1478.81
526.019	1480.81
526.12	1622.81
526.22	1414.81
526.321	1476.81
526.421	1415.81
526.522	1505.81
526.622	1438.81
526.722	1438.81
526.823	1555.81
526.923	1526.81
527.023	1610.81
527.124	1475.81
527.224	1548.81
527.324	1376.81
527.425	1604.81
527.525	1444.81
527.625	1465.81
527.726	1504.81
527.826	1605.81
527.926	1475.81
528.026	1516.81
528.127	1495.81
528.227	1482.81
528.327	1581.81
528.427	1491.81
528.528	1496.81
528.628	1537.81
528.728	1536.81
528.828	1606.81
528.928	1611.81
529.029	1552.81
529.129	1544.81
529.229	1522.81
529.329	1524.81
529.429	1616.81
529.529	1626.81
529.629	1569.81
529.729	1492.81
529.829	1631.81
529.93	1445.81
530.03	1549.81
530.13	1512.81
530.23	1472.81
530.33	1624.81
530.43	1492.81
530.53	1468.81
530.63	1527.81
530.73	1498.81
530.83	1388.81
530.93	1439.81
531.03	1416.81
531.13	1492.81
531.23	1403.81
531.33	1564.81
531.429	1606.81
531.529	1603.81
531.629	1436.81
531.729	1391.81
531.829	1343.81
531.929	1427.81
532.029	1477.81
532.129	1406.81
532.229	1494.81
532.328	1469.81
532.428	1373.81
532.528	1394.81
532.628	1389.81
532.728	1424.81
532.827	1320.81
532.927	1488.81
533.027	1447.81
533.127	1540.81
533.227	1409.81
533.326	1452.81
533.426	1305.81
533.526	1470.81
533.625	1620.81
533.725	1696.81
533.825	1501.81
533.924	1354.81
534.024	1257.81
534.124	1327.81
534.223	1387.81
534.323	1763.81
534.423	1360.81
534.522	1324.81
534.622	1279.81
534.722	1300.81
534.821	1380.81
534.921	1380.81
535.02	1216.81
535.12	1425.81
535.219	1509.81
535.319	1400.81
535.419	1371.81
535.518	1279.81
535.618	1358.81
535.717	1356.81
535.817	1217.81
535.916	1212.81
536.016	1311.81
536.115	1254.81
536.215	1258.81
536.314	1125.81
536.413	1141.81
536.513	1210.81
536.612	1207.81
536.712	1136.81
536.811	1181.81
536.91	1171.81
537.01	1160.81
537.109	1145.81
537.209	1241.81
537.308	1144.81
537.407	1182.81
537.507	1221.81
537.606	1138.81
537.705	1256.81
537.805	1212.81
537.904	1097.81
538.003	1168.81
538.102	1217.81
538.202	1228.81
538.301	1282.81
538.4	1255.81
538.499	1205.81
538.599	1193.81
538.698	1435.81
538.797	1191.81
538.896	1237.81
538.995	1203.81
539.095	1206.81
539.194	1352.81
539.293	1155.81
539.392	1184.81
539.491	1179.81
539.59	1130.81
539.689	1292.81
539.789	1304.81
539.888	1017.81
539.987	1019.81
540.086	1183.81
540.185	1094.81
540.284	1139.81
540.383	1162.81
540.482	1105.81
540.581	1129.81
540.68	1150.81
540.779	1204.81
540.878	1128.81
540.977	1195.81
541.076	1216.81
541.175	1166.81
541.274	1399.81
541.373	1248.81
541.472	1190.81
541.571	1020.81
541.67	2539.81
541.769	1258.81
541.868	1099.81
541.966	1154.81
542.065	1162.81
542.164	1147.81
542.263	1119.81
542.362	1126.81
542.461	1178.81
542.56	1144.81
542.658	1222.81
542.757	1050.81
542.856	1027.81
542.955	1032.81
543.054	1040.81
543.152	1229.81
543.251	1096.81
543.35	1252.81
543.449	1125.81
543.547	1079.81
543.646	1115.81
543.745	1112.81
543.843	1138.81
543.942	1132.81
544.041	1045.81
544.14	1147.81
544.238	1172.81
544.337	1311.81
544.436	1174.81
544.534	1256.81
544.633	1235.81
544.731	1150.81
544.83	1229.81
544.929	1228.81
545.027	1140.81
545.126	1142.81
545.224	1286.81
545.323	1139.81
545.421	1119.81
545.52	1162.81
545.619	1173.81
545.717	1117.81
545.816	1242.81
545.914	1272.81
546.013	1363.81
546.111	1327.81
546.209	1215.81
546.308	1090.81
546.406	1128.81
546.505	1279.81
546.603	1189.81
546.702	1071.81
546.8	1174.81
546.899	1125.81
546.997	1178.81
547.095	1185.81
547.194	1225.81
547.292	1137.81
547.39	1291.81
547.489	1215.81
547.587	1465.81
547.685	1119.81
547.784	1443.81
547.882	1223.81
547.98	1052.81
548.079	1242.81
548.177	1149.81
548.275	1091.81
548.373	1315.81
548.472	1139.81
548.57	1191.81
548.668	1233.81
548.766	1148.81
548.864	1284.81
548.963	1125.81
549.061	1307.81
549.159	1140.81
549.257	1176.81
549.355	1214.81
549.454	1185.81
549.552	1272.81
549.65	1223.81
549.748	1169.81
549.846	1162.81
549.944	1132.81
550.042	1130.81
550.14	1097.81
550.238	1160.81
550.336	1121.81
550.434	1036.81
550.532	1111.81
550.631	1230.81
550.729	1123.81
550.827	1163.81
550.925	1132.81
551.023	1146.81
551.121	1045.81
551.218	1098.81
551.316	1064.81
551.414	1023.81
551.512	1040.81
551.61	1082.81
551.708	1203.81
551.806	1148.81
551.904	1101.81
552.002	1096.81
552.1	1243.81
552.198	1112.81
552.296	1281.81
552.393	1308.81
552.491	1382.81
552.589	1394.81
552.687	1370.81
552.785	1301.81
552.882	1499.81
552.98	1542.81
553.078	1429.81
553.176	1390.81
553.274	1227.81
553.371	1255.81
553.469	1304.81
553.567	1342.81
553.665	1254.81
553.762	1649.81
553.86	1430.81
553.958	1303.81
554.055	1229.81
554.153	1317.81
554.251	1212.81
554.348	1272.81
554.446	1139.81
554.544	1191.81
554.641	1442.81
554.739	1190.81
554.837	1186.81
554.934	1153.81
555.032	1124.81
555.129	1128.81
555.227	1324.81
555.324	5383.81
555.422	1510.81
555.519	1127.81
555.617	1074.81
555.715	997.81
555.812	1386.81
555.91	998.81
556.007	1105.81
556.105	1062.81
556.202	1133.81
556.299	995.81
556.397	1066.81
556.494	1016.81
556.592	1029.81
556.689	1152.81
556.787	1010.81
556.884	1012.81
556.981	1044.81
557.079	1035.81
557.176	1044.81
557.273	1067.81
557.371	1168.81
557.468	1008.81
557.566	1036.81
557.663	1090.81
557.76	1046.81
557.857	1006.81
557.955	1080.81
558.052	1130.81
558.149	1141.81
558.247	1225.81
558.344	1032.81
558.441	1002.81
558.538	1045.81
558.636	1039.81
558.733	1014.81
558.83	1079.81
558.927	1090.81
559.024	1056.81
559.122	1002.81
559.219	1071.81
559.316	1105.81
559.413	1099.81
559.51	1072.81
559.607	1052.81
559.704	1096.81
559.801	1131.81
559.899	1072.81
559.996	1298.81
560.093	1058.81
560.19	1031.81
560.287	1052.81
560.384	1221.81
560.481	1076.81
560.578	1045.81
560.675	1004.81
560.772	1112.81
560.869	1061.81
560.966	1169.81
561.063	1064.81
561.16	1138.81
561.257	1050.81
561.354	1103.81
561.451	1066.81
561.548	1068.81
561.645	1281.81
561.742	1063.81
561.838	1030.81
561.935	1056.81
562.032	1043.81
562.129	1097.81
562.226	1033.81
562.323	1027.81
562.42	1123.81
562.516	1018.81
562.613	1081.81
562.71	1130.81
562.807	1862.81
562.904	1086.81
563	1114.81
563.097	1092.81
563.194	1075.81
563.291	1051.81
563.387	1077.81
563.484	1083.81
563.581	1143.81
563.678	1094.81
563.774	1493.81
563.871	1177.81
563.968	1195.81
564.064	1157.81
564.161	1106.81
564.258	1115.81
564.354	1208.81
564.451	1218.81
564.548	1214.81
564.644	1213.81
564.741	1174.81
564.837	1125.81
564.934	1232.81
565.031	1177.81
565.127	1194.81
565.224	1342.81
565.32	1412.81
565.417	1302.81
565.513	1423.81
565.61	1431.81
565.706	1456.81
565.803	1439.81
565.899	1467.81
565.996	1552.81
566.092	1574.81
566.189	1576.81
566.285	1620.81
566.382	1665.81
566.478	1881.81
566.574	1887.81
566.671	1817.81
566.767	1857.81
566.864	1796.81
566.96	1853.81
567.056	1831.81
567.153	2118.81
567.249	2034.81
567.345	2097.81
567.442	2197.81
567.538	2154.81
567.634	2238.81
567.731	2275.81
567.827	2239.81
567.923	2170.81
568.019	1980.81
568.116	1872.81
568.212	1743.81
568.308	1840.81
568.404	1751.81
568.501	1664.81
568.597	1651.81
568.693	1570.81
568.789	2124.81
568.885	1428.81
568.982	1406.81
569.078	1259.81
569.174	1370.81
569.27	1202.81
569.366	1271.81
569.462	1231.81
569.558	1228.81
569.655	1237.81
569.751	1156.81
569.847	1179.81
569.943	1152.81
570.039	1059.81
570.135	1635.81
570.231	1136.81
570.327	1284.81
570.423	1258.81
570.519	1199.81
570.615	1111.81
570.711	1249.81
570.807	1252.81
570.903	1072.81
570.999	1183.81
571.095	1210.81
571.191	1196.81
571.287	1171.81
571.383	1204.81
571.479	1160.81
571.574	1143.81
571.67	1099.81
571.766	1236.81
571.862	1063.81
571.958	1021.81
572.054	1126.81
572.15	959.81
572.246	903.81
572.341	1067.81
572.437	1027.81
572.533	1050.81
572.629	968.81
572.725	1059.81
572.82	890.81
572.916	1068.81
573.012	986.81
573.108	1018.81
573.203	923.81
573.299	926.81
573.395	897.81
573.49	859.81
573.586	886.81
573.682	986.81
573.778	1044.81
573.873	856.81
573.969	893.81
574.065	894.81
574.16	890.81
574.256	920.81
574.351	942.81
574.447	861.81
574.543	963.81
574.638	1051.81
574.734	919.81
574.829	1122.81
574.925	948.81
575.02	878.81
575.116	831.81
575.212	922.81
575.307	1017.81
575.403	859.81
575.498	933.81
575.594	828.81
575.689	891.81
575.784	961.81
575.88	883.81
575.975	914.81
576.071	805.81
576.166	838.81
576.262	884.81
576.357	806.81
576.452	1002.81
576.548	823.81
576.643	837.81
576.739	895.81
576.834	888.81
576.929	874.81
577.025	1516.81
577.12	832.81
577.215	733.81
577.311	857.81
577.406	927.81
577.501	928.81
577.597	736.81
577.692	982.81
577.787	905.81
577.882	761.81
577.978	841.81
578.073	741.81
578.168	732.81
578.263	773.81
578.358	765.81
578.454	698.81
578.549	736.81
578.644	768.81
578.739	812.81
578.834	691.81
578.929	732.81
579.025	693.81
579.12	803.81
579.215	1066.81
579.31	921.81
579.405	738.81
579.5	799.81
579.595	749.81
579.69	672.81
579.785	701.81
579.88	764.81
579.975	768.81
580.07	730.81
580.165	783.81
580.26	792.81
580.355	721.81
580.45	719.81
580.545	634.81
580.64	703.81
580.735	819.81
580.83	750.81
580.925	637.81
581.02	638.81
581.115	663.81
581.21	606.81
581.305	705.81
581.4	715.81
581.495	664.81
581.589	665.81
581.684	645.81
581.779	730.81
581.874	654.81
581.969	671.81
582.064	656.81
582.158	616.81
582.253	611.81
582.348	685.81
582.443	664.81
582.537	680.81
582.632	887.81
582.727	655.81
582.822	609.81
582.916	671.81
583.011	678.81
583.106	671.81
583.201	630.81
583.295	672.81
583.39	621.81
583.485	584.81
583.579	2498.81
583.674	838.81
583.769	856.81
583.863	695.81
583.958	610.81
584.052	528.81
584.147	628.81
584.242	558.81
584.336	611.81
584.431	819.81
584.525	623.81
584.62	810.81
584.714	673.81
584.809	679.81
584.903	607.81
584.998	684.81
585.092	584.81
585.187	573.81
585.281	552.81
585.376	674.81
585.47	641.81
585.565	591.81
585.659	515.81
585.754	593.81
585.848	617.81
585.942	538.81
586.037	603.81
586.131	1839.81
586.226	677.81
586.32	668.81
586.414	502.81
586.509	677.81
586.603	693.81
586.697	573.81
586.792	503.81
586.886	531.81
586.98	728.81
587.075	561.81
587.169	538.81
587.263	789.81
587.357	588.81
587.452	566.81
587.546	747.81
587.64	510.81
587.734	578.81
587.829	619.81
587.923	593.81
588.017	600.81
588.111	618.81
588.205	722.81
588.3	545.81
588.394	535.81
588.488	603.81
588.582	637.81
588.676	710.81
588.77	1122.81
588.864	2235.81
588.958	2136.81
589.052	1562.81
589.147	1142.81
589.241	791.81
589.335	812.81
589.429	1539.81
589.523	1766.81
589.617	1507.81
589.711	1071.81
589.805	807.81
589.899	762.81
589.993	634.81
590.087	512.81
590.181	507.81
590.275	640.81
590.369	558.81
590.462	512.81
590.556	551.81
590.65	503.81
590.744	515.81
590.838	525.81
590.932	609.81
591.026	571.81
591.12	705.81
591.214	603.81
591.307	598.81
591.401	553.81
591.495	686.81
591.589	520.81
591.683	584.81
591.777	637.81
591.87	1005.81
591.964	601.81
592.058	555.81
592.152	726.81
592.245	613.81
592.339	679.81
592.433	770.81
592.527	652.81
592.62	582.81
592.714	709.81
592.808	711.81
592.901	670.81
592.995	656.81
593.089	953.81
593.182	763.81
593.276	655.81
593.37	645.81
593.463	649.81
593.557	639.81
593.65	724.81
593.744	658.81
593.837	772.81
593.931	643.81
594.025	3691.81
594.118	993.81
594.212	700.81
594.305	617.81
594.399	667.81
594.492	969.81
594.586	671.81
594.679	610.81
594.773	599.81
594.866	691.81
594.96	651.81
595.053	545.81
595.146	612.81
595.24	514.81
595.333	530.81
595.427	463.81
595.52	559.81
595.614	644.81
595.707	552.81
595.8	501.81
595.894	528.81
595.987	440.81
596.08	494.81
596.174	819.81
596.267	607.81
596.36	654.81
596.454	673.81
596.547	583.81
596.64	458.81
596.733	455.81
596.827	507.81
596.92	456.81
597.013	418.81
597.106	394.81
597.2	409.81
597.293	436.81
597.386	670.81
597.479	484.81
597.572	520.81
597.666	415.81
597.759	393.81
597.852	566.81
597.945	424.81
598.038	379.81
598.131	450.81
598.224	439.81
598.317	519.81
598.411	459.81
598.504	431.81
598.597	483.81
598.69	441.81
598.783	417.81
598.876	472.81
598.969	428.81
599.062	344.81
599.155	488.81
599.248	395.81
599.341	459.81
599.434	435.81
599.527	435.81
599.62	384.81
599.713	430.81
599.806	487.81
599.899	568.81
599.991	405.81
600.084	671.81
600.177	371.81
600.27	400.81
600.363	632.81
600.456	386.81
600.549	456.81
600.642	424.81
600.734	387.81
600.827	362.81
600.92	556.81
601.013	408.81
601.106	506.81
601.199	401.81
601.291	381.81
601.384	384.81
601.477	639.81
601.57	559.81
601.662	373.81
601.755	427.81
601.848	499.81
601.94	361.81
602.033	545.81
602.126	444.81
602.219	364.81
602.311	520.81
602.404	416.81
602.497	397.81
602.589	344.81
602.682	434.81
602.774	456.81
602.867	410.81
602.96	389.81
603.052	439.81
603.145	358.81
603.237	397.81
603.33	443.81
603.422	480.81
603.515	391.81
603.608	481.81
603.7	419.81
603.793	402.81
603.885	433.81
603.978	395.81
604.07	357.81
604.163	335.81
604.255	475.81
604.347	380.81
604.44	311.81
604.532	421.81
604.625	358.81
604.717	355.81
604.81	435.81
604.902	362.81
604.994	328.81
605.087	412.81
605.179	370.81
605.271	380.81
605.364	405.81
605.456	484.81
605.548	356.81
605.641	401.81
605.733	396.81
605.825	382.81
605.918	325.81
606.01	559.81
606.102	874.81
606.194	409.81
606.287	556.81
606.379	411.81
606.471	376.81
606.563	447.81
606.655	499.81
606.748	455.81
606.84	388.81
606.932	486.81
607.024	360.81
607.116	285.81
607.208	417.81
607.301	396.81
607.393	335.81
607.485	431.81
607.577	473.81
607.669	465.81
607.761	435.81
607.853	732.81
607.945	327.81
608.037	333.81
608.129	404.81
608.221	337.81
608.313	337.81
608.405	453.81
608.497	405.81
608.589	323.81
608.681	400.81
608.773	502.81
608.865	383.81
608.957	417.81
609.049	416.81
609.141	458.81
609.233	331.81
609.325	389.81
609.417	351.81
609.509	449.81
609.601	527.81
609.693	485.81
609.784	370.81
609.876	419.81
609.968	482.81
610.06	2632.81
610.152	630.81
610.244	728.81
610.335	401.81
610.427	401.81
610.519	414.81
610.611	426.81
610.702	363.81
610.794	408.81
610.886	476.81
610.978	383.81
611.069	907.81
611.161	453.81
611.253	476.81
611.344	382.81
611.436	322.81
611.528	380.81
611.62	307.81
611.711	383.81
611.803	312.81
611.894	300.81
611.986	375.81
612.078	356.81
612.169	333.81
612.261	344.81
612.352	330.81
612.444	267.81
612.536	437.81
612.627	383.81
612.719	249.81
612.81	267.81
612.902	251.81
612.993	309.81
613.085	297.81
613.176	225.81
613.268	314.81
613.359	236.81
613.451	250.81
613.542	298.81
613.634	236.81
613.725	267.81
613.816	372.81
613.908	214.81
613.999	217.81
614.091	183.81
614.182	146.81
614.273	248.81
614.365	183.81
614.456	100.81
614.547	129.81
614.639	135.81
614.73	216.81
614.821	226.81
614.913	98.81
615.004	122.81
615.095	68.81
615.187	85.81
