Data from 28g_HRC06701__30__396.txt Node

Date: Thu Apr 18 02:21:01 CDT 2024
User: Estudiantes 2
Spectrometer: HR+C0670
Trigger mode: 4
Integration Time (sec): 1.000000E0
Scans to average: 1
Electric dark correction enabled: true
Nonlinearity correction enabled: false
Boxcar width: 0
XAxis mode: Wavelengths
Number of Pixels in Spectrum: 2048
>>>>>Begin Spectral Data<<<<<
407.81	-125.31
407.921	-125.31
408.032	-125.31
408.143	-95.31
408.254	-156.31
408.365	21.69
408.476	268.69
408.587	-49.31
408.699	-39.31
408.81	-3.31
408.921	-41.31
409.032	-34.31
409.143	21.69
409.254	27.69
409.365	96.69
409.476	-40.31
409.587	60.69
409.698	87.69
409.809	75.69
409.92	-28.31
410.031	-15.31
410.142	39.69
410.253	22.69
410.364	72.69
410.475	164.69
410.585	878.69
410.696	1014.69
410.807	987.69
410.918	971.69
411.029	1057.69
411.14	1003.69
411.251	938.69
411.362	1114.69
411.472	1058.69
411.583	1040.69
411.694	1081.69
411.805	1037.69
411.916	1039.69
412.026	1087.69
412.137	1066.69
412.248	1029.69
412.359	959.69
412.47	1001.69
412.58	953.69
412.691	1016.69
412.802	1052.69
412.912	999.69
413.023	949.69
413.134	950.69
413.245	1097.69
413.355	973.69
413.466	948.69
413.577	1048.69
413.687	1077.69
413.798	937.69
413.909	1078.69
414.019	969.69
414.13	1005.69
414.24	1003.69
414.351	1059.69
414.462	1182.69
414.572	1114.69
414.683	1090.69
414.793	1007.69
414.904	1340.69
415.014	1098.69
415.125	962.69
415.235	1033.69
415.346	1202.69
415.456	1094.69
415.567	988.69
415.677	1029.69
415.788	1002.69
415.898	1013.69
416.009	981.69
416.119	1071.69
416.23	997.69
416.34	989.69
416.45	1096.69
416.561	1846.69
416.671	1153.69
416.782	993.69
416.892	998.69
417.002	1084.69
417.113	1133.69
417.223	1089.69
417.333	995.69
417.444	1005.69
417.554	1131.69
417.664	1126.69
417.775	1023.69
417.885	1086.69
417.995	1061.69
418.106	1281.69
418.216	1177.69
418.326	1080.69
418.436	1093.69
418.547	1206.69
418.657	1106.69
418.767	1240.69
418.877	1199.69
418.987	1174.69
419.098	1140.69
419.208	1173.69
419.318	1256.69
419.428	1216.69
419.538	1175.69
419.648	1225.69
419.759	1205.69
419.869	1268.69
419.979	1209.69
420.089	1196.69
420.199	1148.69
420.309	1161.69
420.419	1228.69
420.529	1142.69
420.639	1670.69
420.749	1322.69
420.859	1268.69
420.969	1266.69
421.079	1490.69
421.189	1288.69
421.299	1260.69
421.409	1207.69
421.519	1308.69
421.629	1297.69
421.739	1180.69
421.849	1275.69
421.959	1205.69
422.069	1326.69
422.179	1310.69
422.289	1288.69
422.399	1330.69
422.509	1441.69
422.619	4891.69
422.729	1636.69
422.838	1307.69
422.948	1367.69
423.058	1316.69
423.168	1327.69
423.278	1419.69
423.388	1411.69
423.498	1493.69
423.607	1550.69
423.717	1698.69
423.827	1690.69
423.937	1470.69
424.046	1554.69
424.156	1589.69
424.266	1477.69
424.376	1735.69
424.485	1654.69
424.595	1471.69
424.705	1492.69
424.815	1438.69
424.924	1898.69
425.034	1570.69
425.144	1446.69
425.253	1529.69
425.363	1549.69
425.473	1572.69
425.582	1434.69
425.692	1497.69
425.801	1507.69
425.911	1645.69
426.021	1532.69
426.13	1703.69
426.24	1776.69
426.349	1652.69
426.459	1617.69
426.568	1504.69
426.678	1656.69
426.787	1598.69
426.897	1522.69
427.006	1560.69
427.116	1673.69
427.225	1614.69
427.335	1635.69
427.444	1586.69
427.554	1665.69
427.663	1653.69
427.773	1574.69
427.882	1710.69
427.992	1629.69
428.101	1614.69
428.21	1660.69
428.32	1692.69
428.429	1614.69
428.539	1997.69
428.648	1718.69
428.757	1735.69
428.867	1688.69
428.976	1876.69
429.085	1779.69
429.195	1716.69
429.304	1748.69
429.413	1819.69
429.523	1802.69
429.632	1849.69
429.741	1826.69
429.85	1729.69
429.96	1840.69
430.069	1742.69
430.178	1740.69
430.287	2075.69
430.397	1814.69
430.506	1798.69
430.615	1830.69
430.724	1890.69
430.833	1826.69
430.943	1920.69
431.052	1911.69
431.161	1847.69
431.27	1888.69
431.379	1957.69
431.488	2187.69
431.597	2075.69
431.706	2125.69
431.816	2060.69
431.925	1930.69
432.034	1954.69
432.143	2129.69
432.252	2026.69
432.361	2043.69
432.47	2034.69
432.579	1989.69
432.688	1985.69
432.797	2033.69
432.906	1989.69
433.015	2022.69
433.124	2476.69
433.233	2083.69
433.342	2075.69
433.451	2039.69
433.56	2105.69
433.669	2107.69
433.778	2066.69
433.886	2205.69
433.995	2137.69
434.104	2264.69
434.213	2194.69
434.322	2180.69
434.431	2283.69
434.54	2376.69
434.649	2567.69
434.757	2406.69
434.866	2334.69
434.975	2363.69
435.084	2289.69
435.193	2237.69
435.301	2463.69
435.41	2563.69
435.519	2605.69
435.628	2098.69
435.737	2055.69
435.845	1999.69
435.954	1950.69
436.063	2054.69
436.171	1968.69
436.28	1934.69
436.389	2157.69
436.498	1963.69
436.606	1934.69
436.715	2115.69
436.823	1935.69
436.932	1906.69
437.041	1899.69
437.149	1953.69
437.258	1837.69
437.367	1830.69
437.475	1827.69
437.584	2081.69
437.692	1833.69
437.801	3465.69
437.91	1951.69
438.018	1766.69
438.127	1774.69
438.235	1795.69
438.344	1747.69
438.452	1779.69
438.561	1788.69
438.669	1779.69
438.778	1734.69
438.886	1852.69
438.995	1699.69
439.103	1698.69
439.212	1804.69
439.32	1787.69
439.428	1791.69
439.537	1789.69
439.645	1900.69
439.754	1836.69
439.862	1722.69
439.97	1882.69
440.079	1830.69
440.187	1728.69
440.295	2003.69
440.404	1823.69
440.512	1894.69
440.62	1955.69
440.729	1939.69
440.837	2009.69
440.945	2680.69
441.054	2061.69
441.162	2024.69
441.27	2109.69
441.378	2078.69
441.487	2055.69
441.595	2465.69
441.703	2228.69
441.811	2094.69
441.92	1975.69
442.028	2006.69
442.136	2005.69
442.244	1974.69
442.352	2046.69
442.461	1940.69
442.569	1921.69
442.677	1990.69
442.785	2035.69
442.893	1944.69
443.001	1887.69
443.109	1962.69
443.217	1970.69
443.325	1964.69
443.434	2613.69
443.542	2302.69
443.65	2076.69
443.758	2264.69
443.866	2177.69
443.974	2409.69
444.082	2245.69
444.19	2337.69
444.298	2373.69
444.406	2503.69
444.514	2475.69
444.622	2434.69
444.73	2546.69
444.838	2437.69
444.946	2404.69
445.054	2225.69
445.161	2189.69
445.269	2140.69
445.377	2142.69
445.485	2094.69
445.593	2149.69
445.701	2254.69
445.809	2131.69
445.917	2086.69
446.025	1965.69
446.132	2094.69
446.24	2132.69
446.348	2023.69
446.456	1847.69
446.564	1970.69
446.671	1964.69
446.779	1894.69
446.887	1924.69
446.995	1923.69
447.102	1998.69
447.21	1993.69
447.318	2022.69
447.426	1835.69
447.533	2150.69
447.641	3148.69
447.749	2020.69
447.856	1868.69
447.964	1917.69
448.072	1997.69
448.179	1911.69
448.287	1969.69
448.395	1993.69
448.502	1835.69
448.61	1908.69
448.718	1949.69
448.825	1938.69
448.933	1911.69
449.04	1939.69
449.148	1975.69
449.256	1950.69
449.363	2052.69
449.471	2046.69
449.578	2070.69
449.686	1957.69
449.793	2078.69
449.901	1967.69
450.008	2037.69
450.116	2122.69
450.223	2044.69
450.331	2110.69
450.438	2165.69
450.546	2086.69
450.653	2219.69
450.76	2250.69
450.868	2266.69
450.975	2387.69
451.083	2191.69
451.19	2300.69
451.297	2198.69
451.405	2292.69
451.512	2302.69
451.619	2354.69
451.727	2373.69
451.834	2343.69
451.941	2278.69
452.049	2252.69
452.156	2249.69
452.263	2363.69
452.371	2279.69
452.478	2364.69
452.585	2520.69
452.692	2293.69
452.8	2375.69
452.907	2518.69
453.014	2346.69
453.121	2299.69
453.229	2563.69
453.336	2437.69
453.443	2466.69
453.55	2460.69
453.657	2407.69
453.765	2470.69
453.872	2387.69
453.979	2573.69
454.086	2412.69
454.193	2485.69
454.3	2376.69
454.407	2585.69
454.514	2609.69
454.621	2471.69
454.729	2470.69
454.836	2429.69
454.943	2501.69
455.05	2564.69
455.157	2589.69
455.264	2539.69
455.371	2655.69
455.478	2526.69
455.585	3841.69
455.692	2813.69
455.799	2733.69
455.906	2578.69
456.013	2578.69
456.12	2546.69
456.227	2564.69
456.334	2702.69
456.44	2797.69
456.547	2654.69
456.654	2598.69
456.761	2794.69
456.868	2821.69
456.975	2817.69
457.082	2756.69
457.189	2725.69
457.296	2762.69
457.402	2828.69
457.509	2671.69
457.616	2877.69
457.723	3071.69
457.83	2940.69
457.936	2914.69
458.043	3181.69
458.15	3098.69
458.257	3125.69
458.363	3116.69
458.47	3179.69
458.577	3287.69
458.684	3228.69
458.79	3374.69
458.897	3406.69
459.004	3593.69
459.11	3399.69
459.217	3553.69
459.324	3667.69
459.43	3800.69
459.537	3969.69
459.644	3796.69
459.75	3725.69
459.857	4357.69
459.964	4060.69
460.07	3989.69
460.177	4132.69
460.283	4147.69
460.39	4274.69
460.496	4140.69
460.603	4279.69
460.71	4082.69
460.816	4063.69
460.923	4116.69
461.029	4056.69
461.136	4087.69
461.242	4040.69
461.349	4013.69
461.455	4125.69
461.562	4394.69
461.668	4219.69
461.774	4196.69
461.881	4389.69
461.987	4349.69
462.094	4429.69
462.2	4543.69
462.307	4600.69
462.413	4519.69
462.519	4711.69
462.626	5065.69
462.732	5185.69
462.838	5454.69
462.945	5674.69
463.051	5548.69
463.157	5326.69
463.264	5171.69
463.37	4948.69
463.476	4732.69
463.583	4768.69
463.689	4725.69
463.795	4697.69
463.901	4796.69
464.008	4992.69
464.114	4776.69
464.22	4729.69
464.326	4661.69
464.433	4509.69
464.539	4406.69
464.645	4320.69
464.751	4547.69
464.857	4204.69
464.963	3955.69
465.07	3929.69
465.176	3794.69
465.282	3589.69
465.388	3695.69
465.494	3331.69
465.6	3331.69
465.706	3288.69
465.812	3223.69
465.918	3285.69
466.024	3162.69
466.131	3240.69
466.237	3041.69
466.343	2860.69
466.449	2990.69
466.555	2858.69
466.661	2810.69
466.767	2827.69
466.873	2843.69
466.979	2957.69
467.085	2849.69
467.191	2861.69
467.296	2766.69
467.402	2818.69
467.508	2839.69
467.614	2886.69
467.72	2684.69
467.826	2653.69
467.932	2587.69
468.038	2516.69
468.144	2598.69
468.25	2480.69
468.355	2447.69
468.461	2636.69
468.567	2508.69
468.673	2514.69
468.779	2499.69
468.885	2579.69
468.99	2428.69
469.096	2500.69
469.202	2716.69
469.308	2643.69
469.413	2679.69
469.519	2610.69
469.625	2593.69
469.731	2674.69
469.836	2644.69
469.942	2811.69
470.048	2639.69
470.153	2649.69
470.259	2761.69
470.365	2738.69
470.47	2739.69
470.576	2707.69
470.682	2594.69
470.787	2574.69
470.893	2532.69
470.999	2554.69
471.104	2466.69
471.21	2433.69
471.315	2356.69
471.421	2315.69
471.527	2536.69
471.632	2405.69
471.738	2400.69
471.843	2252.69
471.949	2346.69
472.054	2265.69
472.16	2204.69
472.265	2253.69
472.371	2156.69
472.476	2199.69
472.582	2285.69
472.687	2211.69
472.793	2058.69
472.898	2144.69
473.003	2148.69
473.109	2103.69
473.214	2056.69
473.32	2100.69
473.425	2174.69
473.53	2105.69
473.636	2124.69
473.741	2011.69
473.847	2043.69
473.952	2120.69
474.057	2141.69
474.163	2156.69
474.268	2073.69
474.373	2163.69
474.478	2022.69
474.584	2020.69
474.689	2228.69
474.794	2083.69
474.9	2379.69
475.005	2058.69
475.11	2214.69
475.215	2095.69
475.321	2123.69
475.426	2269.69
475.531	2247.69
475.636	2113.69
475.741	2124.69
475.846	2275.69
475.952	2363.69
476.057	2234.69
476.162	2201.69
476.267	2340.69
476.372	2528.69
476.477	2227.69
476.582	2310.69
476.687	2190.69
476.793	2217.69
476.898	2208.69
477.003	2239.69
477.108	2218.69
477.213	2203.69
477.318	2308.69
477.423	2417.69
477.528	2426.69
477.633	2458.69
477.738	2445.69
477.843	2396.69
477.948	2525.69
478.053	2506.69
478.158	2516.69
478.263	2588.69
478.368	2536.69
478.473	2765.69
478.578	2696.69
478.682	2542.69
478.787	2699.69
478.892	2644.69
478.997	2763.69
479.102	2632.69
479.207	2682.69
479.312	2791.69
479.417	2679.69
479.521	2680.69
479.626	2715.69
479.731	2756.69
479.836	2759.69
479.941	2964.69
480.045	2931.69
480.15	2957.69
480.255	2939.69
480.36	2948.69
480.465	2980.69
480.569	3099.69
480.674	2811.69
480.779	2707.69
480.883	2772.69
480.988	2792.69
481.093	2691.69
481.197	2785.69
481.302	2687.69
481.407	2722.69
481.511	4852.69
481.616	2789.69
481.721	2721.69
481.825	2978.69
481.93	2676.69
482.035	2664.69
482.139	2747.69
482.244	2831.69
482.348	2697.69
482.453	2727.69
482.557	2855.69
482.662	2812.69
482.767	2755.69
482.871	2859.69
482.976	2851.69
483.08	2869.69
483.185	3077.69
483.289	2868.69
483.394	2852.69
483.498	3086.69
483.603	2963.69
483.707	3028.69
483.811	3074.69
483.916	3161.69
484.02	3075.69
484.125	3089.69
484.229	3261.69
484.333	3219.69
484.438	3132.69
484.542	3246.69
484.647	3188.69
484.751	3240.69
484.855	3305.69
484.96	3294.69
485.064	3256.69
485.168	3404.69
485.273	3378.69
485.377	3339.69
485.481	3553.69
485.585	3538.69
485.69	3341.69
485.794	3593.69
485.898	3446.69
486.002	3442.69
486.107	3459.69
486.211	3475.69
486.315	3576.69
486.419	3543.69
486.524	3567.69
486.628	3489.69
486.732	3420.69
486.836	3418.69
486.94	3643.69
487.044	3520.69
487.148	3455.69
487.253	3463.69
487.357	3469.69
487.461	3669.69
487.565	3596.69
487.669	3518.69
487.773	3512.69
487.877	3618.69
487.981	3569.69
488.085	3496.69
488.189	3530.69
488.293	3723.69
488.397	3925.69
488.501	3561.69
488.605	3511.69
488.709	3532.69
488.813	3481.69
488.917	3466.69
489.021	3529.69
489.125	3738.69
489.229	3451.69
489.333	3737.69
489.437	3554.69
489.541	3574.69
489.645	3550.69
489.749	3535.69
489.853	3654.69
489.956	3566.69
490.06	3653.69
490.164	3544.69
490.268	3471.69
490.372	3586.69
490.476	3553.69
490.579	3561.69
490.683	4243.69
490.787	3627.69
490.891	3560.69
490.995	3620.69
491.098	3516.69
491.202	3608.69
491.306	3704.69
491.41	3525.69
491.513	3514.69
491.617	3573.69
491.721	3721.69
491.824	3726.69
491.928	3609.69
492.032	3849.69
492.136	3571.69
492.239	3476.69
492.343	3642.69
492.446	3985.69
492.55	3680.69
492.654	3557.69
492.757	3581.69
492.861	3617.69
492.965	3553.69
493.068	3692.69
493.172	3601.69
493.275	3558.69
493.379	3538.69
493.482	3758.69
493.586	3723.69
493.689	3879.69
493.793	3663.69
493.896	3686.69
494	3700.69
494.103	3825.69
494.207	4061.69
494.31	4086.69
494.414	3820.69
494.517	3649.69
494.621	3595.69
494.724	3645.69
494.828	3578.69
494.931	3512.69
495.034	3587.69
495.138	3686.69
495.241	3537.69
495.345	4377.69
495.448	3781.69
495.551	3513.69
495.655	3501.69
495.758	3591.69
495.861	3592.69
495.965	3562.69
496.068	3672.69
496.171	3658.69
496.274	3534.69
496.378	3606.69
496.481	3661.69
496.584	3631.69
496.687	3718.69
496.791	3735.69
496.894	3713.69
496.997	3682.69
497.1	3893.69
497.204	3836.69
497.307	3787.69
497.41	4129.69
497.513	4181.69
497.616	3971.69
497.719	3985.69
497.823	4012.69
497.926	4064.69
498.029	4309.69
498.132	4253.69
498.235	4500.69
498.338	4540.69
498.441	4800.69
498.544	4785.69
498.647	4899.69
498.75	5271.69
498.853	5479.69
498.956	5501.69
499.059	5924.69
499.163	5849.69
499.266	6322.69
499.369	6507.69
499.471	6905.69
499.574	7119.69
499.677	7483.69
499.78	7993.69
499.883	8508.69
499.986	9111.69
500.089	9385.69
500.192	9420.69
500.295	9479.69
500.398	9472.69
500.501	9076.69
500.604	8886.69
500.707	8402.69
500.809	8040.69
500.912	7829.69
501.015	7256.69
501.118	6844.69
501.221	6422.69
501.324	6045.69
501.426	5782.69
501.529	5492.69
501.632	5311.69
501.735	5133.69
501.837	4858.69
501.94	4687.69
502.043	4520.69
502.146	4518.69
502.248	4426.69
502.351	4263.69
502.454	4221.69
502.557	4067.69
502.659	3967.69
502.762	3856.69
502.865	3652.69
502.967	3565.69
503.07	3659.69
503.173	3557.69
503.275	3480.69
503.378	3494.69
503.48	3350.69
503.583	3470.69
503.686	3420.69
503.788	3640.69
503.891	3378.69
503.993	3619.69
504.096	3404.69
504.198	3392.69
504.301	3417.69
504.403	3466.69
504.506	3401.69
504.608	3298.69
504.711	3190.69
504.813	3195.69
504.916	3015.69
505.018	2934.69
505.121	2955.69
505.223	2863.69
505.326	2812.69
505.428	2853.69
505.531	2638.69
505.633	2730.69
505.735	2633.69
505.838	2595.69
505.94	2698.69
506.042	2590.69
506.145	2578.69
506.247	2632.69
506.35	2499.69
506.452	2613.69
506.554	2586.69
506.656	2551.69
506.759	2432.69
506.861	2524.69
506.963	2540.69
507.066	2549.69
507.168	2543.69
507.27	2438.69
507.372	2426.69
507.475	2444.69
507.577	2383.69
507.679	2326.69
507.781	2310.69
507.883	2389.69
507.986	2312.69
508.088	2431.69
508.19	2303.69
508.292	2333.69
508.394	2219.69
508.496	2265.69
508.598	2267.69
508.701	2267.69
508.803	2276.69
508.905	2255.69
509.007	2295.69
509.109	2427.69
509.211	2333.69
509.313	2244.69
509.415	2235.69
509.517	2208.69
509.619	2188.69
509.721	2275.69
509.823	2169.69
509.925	2393.69
510.027	2238.69
510.129	2294.69
510.231	2187.69
510.333	2234.69
510.435	2223.69
510.537	2284.69
510.639	2297.69
510.741	2270.69
510.843	2211.69
510.945	2153.69
511.047	2278.69
511.148	2222.69
511.25	2168.69
511.352	2208.69
511.454	2165.69
511.556	2313.69
511.658	2167.69
511.76	2360.69
511.861	2346.69
511.963	2162.69
512.065	2297.69
512.167	2225.69
512.268	2423.69
512.37	2333.69
512.472	2274.69
512.574	2324.69
512.676	2304.69
512.777	2208.69
512.879	2213.69
512.981	2190.69
513.082	2339.69
513.184	2242.69
513.286	2831.69
513.387	2397.69
513.489	2482.69
513.591	2366.69
513.692	2404.69
513.794	2399.69
513.896	2189.69
513.997	2261.69
514.099	2274.69
514.2	2344.69
514.302	2366.69
514.404	2371.69
514.505	2255.69
514.607	2406.69
514.708	2439.69
514.81	2463.69
514.911	2439.69
515.013	2597.69
515.114	2513.69
515.216	2461.69
515.317	2533.69
515.419	2459.69
515.52	2586.69
515.622	2534.69
515.723	2724.69
515.825	2760.69
515.926	2638.69
516.027	2647.69
516.129	2628.69
516.23	2812.69
516.332	2957.69
516.433	2916.69
516.534	2977.69
516.636	2979.69
516.737	3007.69
516.838	4213.69
516.94	3291.69
517.041	3341.69
517.142	3506.69
517.244	3645.69
517.345	3548.69
517.446	3518.69
517.547	3650.69
517.649	3582.69
517.75	3642.69
517.851	3576.69
517.952	3792.69
518.054	3535.69
518.155	3477.69
518.256	3287.69
518.357	3481.69
518.458	3123.69
518.56	3046.69
518.661	3082.69
518.762	3045.69
518.863	3092.69
518.964	3015.69
519.065	2901.69
519.166	2866.69
519.268	2809.69
519.369	3154.69
519.47	2866.69
519.571	2890.69
519.672	2734.69
519.773	2683.69
519.874	2811.69
519.975	2798.69
520.076	2696.69
520.177	2790.69
520.278	2738.69
520.379	2740.69
520.48	2593.69
520.581	2692.69
520.682	2680.69
520.783	2604.69
520.884	2716.69
520.985	2683.69
521.086	2702.69
521.187	2744.69
521.288	2636.69
521.389	2626.69
521.489	2618.69
521.59	2512.69
521.691	2633.69
521.792	2546.69
521.893	2716.69
521.994	2765.69
522.095	2621.69
522.195	2688.69
522.296	2825.69
522.397	2671.69
522.498	2616.69
522.599	2564.69
522.699	2566.69
522.8	2596.69
522.901	2682.69
523.002	2649.69
523.102	2780.69
523.203	2639.69
523.304	2796.69
523.405	2548.69
523.505	2613.69
523.606	2723.69
523.707	2573.69
523.807	2678.69
523.908	2625.69
524.009	2749.69
524.109	2628.69
524.21	2601.69
524.31	2753.69
524.411	2764.69
524.512	2791.69
524.612	2732.69
524.713	2866.69
524.813	2626.69
524.914	2949.69
525.014	7668.69
525.115	2970.69
525.216	2670.69
525.316	2694.69
525.417	2680.69
525.517	2666.69
525.618	2732.69
525.718	2613.69
525.819	2622.69
525.919	2687.69
526.019	2596.69
526.12	2781.69
526.22	2633.69
526.321	2563.69
526.421	2610.69
526.522	2650.69
526.622	2558.69
526.722	2600.69
526.823	2616.69
526.923	2718.69
527.023	2764.69
527.124	2656.69
527.224	2718.69
527.324	2595.69
527.425	2662.69
527.525	2567.69
527.625	2657.69
527.726	2554.69
527.826	2769.69
527.926	2664.69
528.026	2691.69
528.127	2597.69
528.227	2701.69
528.327	2741.69
528.427	2677.69
528.528	2673.69
528.628	2670.69
528.728	2660.69
528.828	2804.69
528.928	2707.69
529.029	2601.69
529.129	2682.69
529.229	2792.69
529.329	2654.69
529.429	2673.69
529.529	2794.69
529.629	2664.69
529.729	2621.69
529.829	2887.69
529.93	2593.69
530.03	2751.69
530.13	2718.69
530.23	2703.69
530.33	2742.69
530.43	2675.69
530.53	2622.69
530.63	2661.69
530.73	2534.69
530.83	2557.69
530.93	2580.69
531.03	2568.69
531.13	2691.69
531.23	2522.69
531.33	2646.69
531.429	2751.69
531.529	2835.69
531.629	2632.69
531.729	2577.69
531.829	2558.69
531.929	2533.69
532.029	2626.69
532.129	2618.69
532.229	2578.69
532.328	2588.69
532.428	2602.69
532.528	2479.69
532.628	2523.69
532.728	2623.69
532.827	2465.69
532.927	2593.69
533.027	2611.69
533.127	2631.69
533.227	2577.69
533.326	2544.69
533.426	2541.69
533.526	2578.69
533.625	2725.69
533.725	2833.69
533.825	2572.69
533.924	2429.69
534.024	2441.69
534.124	2343.69
534.223	2506.69
534.323	2854.69
534.423	2465.69
534.522	2437.69
534.622	2283.69
534.722	2395.69
534.821	2460.69
534.921	2299.69
535.02	2314.69
535.12	2490.69
535.219	2470.69
535.319	2494.69
535.419	2390.69
535.518	2255.69
535.618	2350.69
535.717	2389.69
535.817	2209.69
535.916	2164.69
536.016	2328.69
536.115	2258.69
536.215	2213.69
536.314	2214.69
536.413	2102.69
536.513	2191.69
536.612	2169.69
536.712	2107.69
536.811	2153.69
536.91	2172.69
537.01	2093.69
537.109	2210.69
537.209	2177.69
537.308	2097.69
537.407	2126.69
537.507	2188.69
537.606	2146.69
537.705	2182.69
537.805	2174.69
537.904	2061.69
538.003	2112.69
538.102	2259.69
538.202	2113.69
538.301	2176.69
538.4	2180.69
538.499	2089.69
538.599	2122.69
538.698	2325.69
538.797	2093.69
538.896	2231.69
538.995	2067.69
539.095	2054.69
539.194	2317.69
539.293	2041.69
539.392	2007.69
539.491	2064.69
539.59	1995.69
539.689	2171.69
539.789	2118.69
539.888	1925.69
539.987	1947.69
540.086	1932.69
540.185	2001.69
540.284	2017.69
540.383	1992.69
540.482	2010.69
540.581	2004.69
540.68	1953.69
540.779	2026.69
540.878	2024.69
540.977	2056.69
541.076	1990.69
541.175	1982.69
541.274	2231.69
541.373	2050.69
541.472	2029.69
541.571	1908.69
541.67	3292.69
541.769	2141.69
541.868	1901.69
541.966	2016.69
542.065	2025.69
542.164	1950.69
542.263	1895.69
542.362	1881.69
542.461	1998.69
542.56	2001.69
542.658	2046.69
542.757	1906.69
542.856	1781.69
542.955	1850.69
543.054	1831.69
543.152	2004.69
543.251	1887.69
543.35	2084.69
543.449	1940.69
543.547	1901.69
543.646	1834.69
543.745	1984.69
543.843	1990.69
543.942	1970.69
544.041	1931.69
544.14	1918.69
544.238	1868.69
544.337	2122.69
544.436	1962.69
544.534	2100.69
544.633	2007.69
544.731	2011.69
544.83	1940.69
544.929	1973.69
545.027	2004.69
545.126	1939.69
545.224	2135.69
545.323	1957.69
545.421	2020.69
545.52	1966.69
545.619	2020.69
545.717	1960.69
545.816	1974.69
545.914	1988.69
546.013	2190.69
546.111	2161.69
546.209	1967.69
546.308	1962.69
546.406	1927.69
546.505	2138.69
546.603	1985.69
546.702	1859.69
546.8	1881.69
546.899	1910.69
546.997	1993.69
547.095	1938.69
547.194	2057.69
547.292	2037.69
547.39	2012.69
547.489	1954.69
547.587	2246.69
547.685	1983.69
547.784	2142.69
547.882	2116.69
547.98	1937.69
548.079	1975.69
548.177	2005.69
548.275	1940.69
548.373	2140.69
548.472	1863.69
548.57	1999.69
548.668	2078.69
548.766	1890.69
548.864	2119.69
548.963	1929.69
549.061	2130.69
549.159	1948.69
549.257	2024.69
549.355	2024.69
549.454	2010.69
549.552	2045.69
549.65	2021.69
549.748	1996.69
549.846	2027.69
549.944	1947.69
550.042	1870.69
550.14	1986.69
550.238	1929.69
550.336	1873.69
550.434	1887.69
550.532	1858.69
550.631	1970.69
550.729	2014.69
550.827	2025.69
550.925	1858.69
551.023	1945.69
551.121	1877.69
551.218	1866.69
551.316	1879.69
551.414	1986.69
551.512	1844.69
551.61	1980.69
551.708	2081.69
551.806	2021.69
551.904	1953.69
552.002	1960.69
552.1	1952.69
552.198	2006.69
552.296	2132.69
552.393	2276.69
552.491	2262.69
552.589	2193.69
552.687	2278.69
552.785	2193.69
552.882	2358.69
552.98	2538.69
553.078	2363.69
553.176	2283.69
553.274	2218.69
553.371	2182.69
553.469	2235.69
553.567	2184.69
553.665	2213.69
553.762	2664.69
553.86	2241.69
553.958	2206.69
554.055	2107.69
554.153	2135.69
554.251	2127.69
554.348	2046.69
554.446	1912.69
554.544	2039.69
554.641	2339.69
554.739	1927.69
554.837	1983.69
554.934	1964.69
555.032	1917.69
555.129	1914.69
555.227	2240.69
555.324	3295.69
555.422	2020.69
555.519	1920.69
555.617	1834.69
555.715	1758.69
555.812	3646.69
555.91	1937.69
556.007	1877.69
556.105	1815.69
556.202	1859.69
556.299	1707.69
556.397	1786.69
556.494	1842.69
556.592	1758.69
556.689	1883.69
556.787	1790.69
556.884	1690.69
556.981	1725.69
557.079	1701.69
557.176	1777.69
557.273	1793.69
557.371	1897.69
557.468	1765.69
557.566	1749.69
557.663	1762.69
557.76	1805.69
557.857	1700.69
557.955	1783.69
558.052	1953.69
558.149	1883.69
558.247	1956.69
558.344	1857.69
558.441	1751.69
558.538	1739.69
558.636	1761.69
558.733	1846.69
558.83	1790.69
558.927	1785.69
559.024	1807.69
559.122	1769.69
559.219	1808.69
559.316	1884.69
559.413	1922.69
559.51	1743.69
559.607	1813.69
559.704	1816.69
559.801	1810.69
559.899	1788.69
559.996	2111.69
560.093	1819.69
560.19	1722.69
560.287	1902.69
560.384	1950.69
560.481	1834.69
560.578	1794.69
560.675	1738.69
560.772	1880.69
560.869	1874.69
560.966	1965.69
561.063	1786.69
561.16	1926.69
561.257	1881.69
561.354	1836.69
561.451	1869.69
561.548	1884.69
561.645	2014.69
561.742	1829.69
561.838	1889.69
561.935	1889.69
562.032	1818.69
562.129	1886.69
562.226	1899.69
562.323	1804.69
562.42	2011.69
562.516	1934.69
562.613	1867.69
562.71	1909.69
562.807	2720.69
562.904	1916.69
563	1894.69
563.097	1938.69
563.194	1924.69
563.291	1845.69
563.387	1930.69
563.484	1933.69
563.581	1923.69
563.678	1949.69
563.774	2492.69
563.871	2027.69
563.968	2006.69
564.064	2054.69
564.161	1977.69
564.258	2019.69
564.354	2197.69
564.451	2107.69
564.548	2159.69
564.644	2147.69
564.741	2161.69
564.837	2107.69
564.934	2186.69
565.031	2262.69
565.127	2283.69
565.224	2282.69
565.32	2562.69
565.417	2355.69
565.513	2482.69
565.61	2582.69
565.706	2617.69
565.803	2645.69
565.899	2693.69
565.996	2830.69
566.092	2828.69
566.189	2919.69
566.285	3155.69
566.382	3160.69
566.478	3311.69
566.574	3526.69
566.671	3307.69
566.767	3395.69
566.864	3414.69
566.96	3417.69
567.056	3382.69
567.153	3673.69
567.249	3804.69
567.345	3747.69
567.442	3886.69
567.538	4107.69
567.634	3986.69
567.731	4055.69
567.827	4075.69
567.923	4052.69
568.019	3653.69
568.116	3623.69
568.212	3407.69
568.308	3331.69
568.404	3265.69
568.501	3086.69
568.597	3083.69
568.693	2861.69
568.789	3544.69
568.885	2656.69
568.982	2680.69
569.078	2537.69
569.174	2554.69
569.27	2341.69
569.366	2516.69
569.462	2349.69
569.558	2256.69
569.655	2239.69
569.751	2198.69
569.847	2149.69
569.943	2125.69
570.039	2120.69
570.135	2594.69
570.231	2063.69
570.327	2346.69
570.423	2254.69
570.519	2242.69
570.615	2150.69
570.711	2200.69
570.807	2178.69
570.903	2139.69
570.999	2235.69
571.095	2100.69
571.191	2078.69
571.287	2110.69
571.383	2067.69
571.479	2066.69
571.574	2081.69
571.67	1939.69
571.766	2084.69
571.862	1917.69
571.958	1828.69
572.054	1904.69
572.15	1817.69
572.246	1810.69
572.341	1930.69
572.437	1811.69
572.533	1869.69
572.629	1792.69
572.725	1778.69
572.82	1750.69
572.916	1838.69
573.012	1754.69
573.108	1902.69
573.203	1691.69
573.299	1684.69
573.395	1703.69
573.49	1636.69
573.586	1678.69
573.682	1685.69
573.778	1878.69
573.873	1615.69
573.969	1596.69
574.065	1682.69
574.16	1697.69
574.256	1671.69
574.351	1771.69
574.447	1617.69
574.543	1627.69
574.638	1729.69
574.734	1683.69
574.829	1885.69
574.925	1668.69
575.02	1638.69
575.116	1543.69
575.212	1632.69
575.307	1789.69
575.403	1588.69
575.498	1613.69
575.594	1601.69
575.689	1672.69
575.784	1619.69
575.88	1583.69
575.975	1656.69
576.071	1490.69
576.166	1515.69
576.262	1596.69
576.357	1514.69
576.452	1672.69
576.548	1581.69
576.643	1476.69
576.739	1544.69
576.834	1578.69
576.929	1531.69
577.025	2218.69
577.12	1553.69
577.215	1437.69
577.311	1526.69
577.406	1586.69
577.501	1600.69
577.597	1363.69
577.692	1540.69
577.787	1599.69
577.882	1401.69
577.978	1405.69
578.073	1418.69
578.168	1356.69
578.263	1346.69
578.358	1444.69
578.454	1363.69
578.549	1322.69
578.644	1342.69
578.739	1477.69
578.834	1315.69
578.929	1336.69
579.025	1383.69
579.12	1427.69
579.215	1551.69
579.31	1575.69
579.405	1358.69
579.5	1444.69
579.595	1307.69
579.69	1290.69
579.785	1287.69
579.88	1318.69
579.975	1348.69
580.07	1259.69
580.165	1366.69
580.26	1470.69
580.355	1318.69
580.45	1287.69
580.545	1300.69
580.64	1268.69
580.735	1362.69
580.83	1349.69
580.925	1261.69
581.02	1156.69
581.115	1195.69
581.21	1223.69
581.305	1254.69
581.4	1290.69
581.495	1226.69
581.589	1194.69
581.684	1150.69
581.779	1353.69
581.874	1215.69
581.969	1243.69
582.064	1189.69
582.158	1173.69
582.253	1183.69
582.348	1190.69
582.443	1243.69
582.537	1243.69
582.632	1378.69
582.727	1269.69
582.822	1179.69
582.916	1163.69
583.011	1229.69
583.106	1243.69
583.201	1155.69
583.295	1190.69
583.39	1162.69
583.485	1102.69
583.579	3035.69
583.674	1400.69
583.769	1382.69
583.863	1162.69
583.958	1187.69
584.052	1071.69
584.147	1084.69
584.242	1063.69
584.336	1142.69
584.431	1311.69
584.525	1074.69
584.62	1365.69
584.714	1214.69
584.809	1154.69
584.903	1158.69
584.998	1225.69
585.092	1063.69
585.187	1197.69
585.281	1058.69
585.376	1128.69
585.47	1162.69
585.565	1123.69
585.659	977.69
585.754	1084.69
585.848	1195.69
585.942	1068.69
586.037	1085.69
586.131	2929.69
586.226	1204.69
586.32	1105.69
586.414	1065.69
586.509	1148.69
586.603	1142.69
586.697	1067.69
586.792	1028.69
586.886	1001.69
586.98	1145.69
587.075	1093.69
587.169	1070.69
587.263	1260.69
587.357	1164.69
587.452	998.69
587.546	1152.69
587.64	1053.69
587.734	1116.69
587.829	1126.69
587.923	1088.69
588.017	1141.69
588.111	1085.69
588.205	1180.69
588.3	1162.69
588.394	1034.69
588.488	1158.69
588.582	1357.69
588.676	1507.69
588.77	2528.69
588.864	5678.69
588.958	5389.69
589.052	3733.69
589.147	2443.69
589.241	1823.69
589.335	1763.69
589.429	3663.69
589.523	4537.69
589.617	3463.69
589.711	2219.69
589.805	1644.69
589.899	1390.69
589.993	1206.69
590.087	1117.69
590.181	1035.69
590.275	1093.69
590.369	1089.69
590.462	1031.69
590.556	979.69
590.65	955.69
590.744	1088.69
590.838	974.69
590.932	1010.69
591.026	1144.69
591.12	1240.69
591.214	1141.69
591.307	1094.69
591.401	1080.69
591.495	1081.69
591.589	1085.69
591.683	1111.69
591.777	1108.69
591.87	1469.69
591.964	1141.69
592.058	1123.69
592.152	1142.69
592.245	1188.69
592.339	1233.69
592.433	1254.69
592.527	1257.69
592.62	1158.69
592.714	1222.69
592.808	1315.69
592.901	1316.69
592.995	1252.69
593.089	1517.69
593.182	1280.69
593.276	1242.69
593.37	1231.69
593.463	1246.69
593.557	1236.69
593.65	1261.69
593.744	1245.69
593.837	1375.69
593.931	1254.69
594.025	4373.69
594.118	1575.69
594.212	1208.69
594.305	1172.69
594.399	1283.69
594.492	1572.69
594.586	1157.69
594.679	1171.69
594.773	1081.69
594.866	1108.69
594.96	1120.69
595.053	997.69
595.146	1057.69
595.24	1060.69
595.333	1009.69
595.427	933.69
595.52	947.69
595.614	1132.69
595.707	968.69
595.8	975.69
595.894	1028.69
595.987	898.69
596.08	870.69
596.174	1334.69
596.267	1040.69
596.36	1020.69
596.454	1064.69
596.547	1010.69
596.64	876.69
596.733	853.69
596.827	1018.69
596.92	896.69
597.013	795.69
597.106	862.69
597.2	739.69
597.293	809.69
597.386	1077.69
597.479	852.69
597.572	907.69
597.666	857.69
597.759	853.69
597.852	893.69
597.945	777.69
598.038	787.69
598.131	838.69
598.224	857.69
598.317	954.69
598.411	818.69
598.504	745.69
598.597	878.69
598.69	766.69
598.783	761.69
598.876	843.69
598.969	831.69
599.062	686.69
599.155	829.69
599.248	825.69
599.341	846.69
599.434	761.69
599.527	909.69
599.62	766.69
599.713	730.69
599.806	838.69
599.899	961.69
599.991	734.69
600.084	1021.69
600.177	759.69
600.27	757.69
600.363	975.69
600.456	805.69
600.549	782.69
600.642	723.69
600.734	803.69
600.827	735.69
600.92	873.69
601.013	798.69
601.106	862.69
601.199	740.69
601.291	736.69
601.384	757.69
601.477	994.69
601.57	843.69
601.662	780.69
601.755	776.69
601.848	779.69
601.94	798.69
602.033	876.69
602.126	782.69
602.219	806.69
602.311	856.69
602.404	710.69
602.497	722.69
602.589	719.69
602.682	782.69
602.774	783.69
602.867	807.69
602.96	730.69
603.052	803.69
603.145	782.69
603.237	720.69
603.33	747.69
603.422	922.69
603.515	715.69
603.608	745.69
603.7	765.69
603.793	727.69
603.885	762.69
603.978	718.69
604.07	745.69
604.163	718.69
604.255	725.69
604.347	714.69
604.44	662.69
604.532	706.69
604.625	763.69
604.717	697.69
604.81	776.69
604.902	722.69
604.994	674.69
605.087	693.69
605.179	709.69
605.271	757.69
605.364	694.69
605.456	761.69
605.548	713.69
605.641	709.69
605.733	661.69
605.825	762.69
605.918	656.69
606.01	847.69
606.102	1155.69
606.194	729.69
606.287	797.69
606.379	692.69
606.471	760.69
606.563	773.69
606.655	779.69
606.748	844.69
606.84	696.69
606.932	728.69
607.024	677.69
607.116	635.69
607.208	665.69
607.301	695.69
607.393	674.69
607.485	724.69
607.577	723.69
607.669	874.69
607.761	763.69
607.853	978.69
607.945	718.69
608.037	596.69
608.129	702.69
608.221	720.69
608.313	714.69
608.405	760.69
608.497	724.69
608.589	674.69
608.681	700.69
608.773	750.69
608.865	740.69
608.957	699.69
609.049	680.69
609.141	791.69
609.233	687.69
609.325	652.69
609.417	695.69
609.509	762.69
609.601	824.69
609.693	747.69
609.784	689.69
609.876	709.69
609.968	728.69
610.06	2988.69
610.152	930.69
610.244	974.69
610.335	724.69
610.427	657.69
610.519	689.69
610.611	712.69
610.702	655.69
610.794	696.69
610.886	746.69
610.978	709.69
611.069	1185.69
611.161	693.69
611.253	800.69
611.344	622.69
611.436	576.69
611.528	730.69
611.62	589.69
611.711	610.69
611.803	608.69
611.894	596.69
611.986	555.69
612.078	621.69
612.169	621.69
612.261	579.69
612.352	534.69
612.444	563.69
612.536	632.69
612.627	544.69
612.719	548.69
612.81	451.69
612.902	455.69
612.993	581.69
613.085	516.69
613.176	405.69
613.268	486.69
613.359	502.69
613.451	442.69
613.542	532.69
613.634	517.69
613.725	464.69
613.816	539.69
613.908	463.69
613.999	382.69
614.091	335.69
614.182	381.69
614.273	409.69
614.365	339.69
614.456	312.69
614.547	344.69
614.639	254.69
614.73	305.69
614.821	430.69
614.913	238.69
615.004	234.69
615.095	283.69
615.187	236.69
