Data from 35g_HRC06701__57__484.txt Node

Date: Thu Apr 18 02:32:29 CDT 2024
User: Estudiantes 2
Spectrometer: HR+C0670
Trigger mode: 4
Integration Time (sec): 1.000000E0
Scans to average: 1
Electric dark correction enabled: true
Nonlinearity correction enabled: false
Boxcar width: 0
XAxis mode: Wavelengths
Number of Pixels in Spectrum: 2048
>>>>>Begin Spectral Data<<<<<
407.81	-116.94
407.921	-116.94
408.032	-116.94
408.143	-154.94
408.254	-159.94
408.365	47.06
408.476	296.06
408.587	-19.94
408.699	-2.94
408.81	11.06
408.921	-63.94
409.032	-43.94
409.143	68.06
409.254	-11.94
409.365	86.06
409.476	-21.94
409.587	23.06
409.698	65.06
409.809	101.06
409.92	-7.94
410.031	-36.94
410.142	72.06
410.253	52.06
410.364	15.06
410.475	771.06
410.585	4002.06
410.696	4148.06
410.807	4176.06
410.918	4184.06
411.029	4244.06
411.14	4142.06
411.251	4250.06
411.362	4346.06
411.472	4371.06
411.583	4331.06
411.694	4657.06
411.805	4516.06
411.916	4548.06
412.026	4468.06
412.137	4458.06
412.248	4300.06
412.359	4372.06
412.47	4200.06
412.58	3994.06
412.691	4235.06
412.802	4121.06
412.912	4222.06
413.023	4241.06
413.134	4265.06
413.245	4290.06
413.355	4207.06
413.466	4231.06
413.577	4163.06
413.687	4204.06
413.798	4120.06
413.909	4286.06
414.019	4308.06
414.13	4371.06
414.24	4299.06
414.351	4346.06
414.462	4626.06
414.572	4398.06
414.683	4343.06
414.793	4411.06
414.904	4740.06
415.014	4250.06
415.125	4225.06
415.235	4377.06
415.346	4427.06
415.456	4415.06
415.567	4299.06
415.677	4337.06
415.788	4350.06
415.898	4237.06
416.009	4341.06
416.119	4419.06
416.23	4246.06
416.34	4370.06
416.45	4320.06
416.561	4912.06
416.671	4385.06
416.782	4309.06
416.892	4363.06
417.002	4427.06
417.113	4592.06
417.223	4402.06
417.333	4384.06
417.444	4481.06
417.554	4557.06
417.664	4612.06
417.775	4573.06
417.885	4603.06
417.995	4631.06
418.106	4938.06
418.216	4871.06
418.326	4909.06
418.436	4971.06
418.547	4935.06
418.657	4995.06
418.767	5150.06
418.877	5140.06
418.987	5047.06
419.098	5013.06
419.208	5086.06
419.318	5005.06
419.428	5075.06
419.538	4985.06
419.648	5083.06
419.759	4943.06
419.869	4979.06
419.979	5104.06
420.089	5087.06
420.199	4972.06
420.309	5091.06
420.419	5074.06
420.529	4961.06
420.639	5269.06
420.749	5172.06
420.859	5191.06
420.969	5128.06
421.079	5362.06
421.189	5177.06
421.299	5115.06
421.409	5111.06
421.519	5272.06
421.629	5348.06
421.739	5263.06
421.849	5301.06
421.959	5419.06
422.069	5414.06
422.179	5469.06
422.289	5543.06
422.399	5794.06
422.509	5690.06
422.619	8984.06
422.729	5946.06
422.838	5727.06
422.948	5931.06
423.058	5818.06
423.168	5914.06
423.278	5989.06
423.388	6093.06
423.498	6295.06
423.607	6325.06
423.717	6488.06
423.827	6621.06
423.937	6307.06
424.046	6368.06
424.156	6446.06
424.266	6502.06
424.376	6604.06
424.485	6545.06
424.595	6507.06
424.705	6478.06
424.815	6343.06
424.924	7006.06
425.034	6522.06
425.144	6377.06
425.253	6497.06
425.363	6611.06
425.473	6589.06
425.582	6356.06
425.692	6510.06
425.801	6576.06
425.911	6785.06
426.021	6745.06
426.13	6758.06
426.24	6764.06
426.349	6831.06
426.459	6809.06
426.568	6636.06
426.678	6915.06
426.787	6828.06
426.897	6837.06
427.006	6864.06
427.116	7002.06
427.225	6814.06
427.335	7120.06
427.444	7065.06
427.554	6938.06
427.663	7012.06
427.773	7141.06
427.882	7184.06
427.992	7059.06
428.101	7239.06
428.21	7176.06
428.32	7243.06
428.429	7168.06
428.539	7600.06
428.648	7308.06
428.757	7352.06
428.867	7578.06
428.976	7730.06
429.085	7506.06
429.195	7624.06
429.304	7521.06
429.413	7579.06
429.523	7655.06
429.632	7722.06
429.741	7657.06
429.85	7668.06
429.96	7853.06
430.069	7820.06
430.178	7927.06
430.287	8205.06
430.397	7897.06
430.506	7871.06
430.615	7937.06
430.724	8169.06
430.833	8062.06
430.943	8034.06
431.052	8132.06
431.161	8175.06
431.27	8383.06
431.379	8496.06
431.488	8899.06
431.597	8895.06
431.706	9050.06
431.816	8805.06
431.925	8771.06
432.034	8687.06
432.143	8774.06
432.252	8593.06
432.361	8794.06
432.47	8646.06
432.579	8595.06
432.688	8640.06
432.797	8703.06
432.906	8612.06
433.015	8616.06
433.124	9085.06
433.233	8908.06
433.342	8754.06
433.451	8858.06
433.56	8933.06
433.669	8636.06
433.778	8812.06
433.886	9077.06
433.995	8932.06
434.104	9343.06
434.213	9348.06
434.322	9431.06
434.431	9839.06
434.54	10282.06
434.649	10361.06
434.757	10323.06
434.866	10162.06
434.975	9965.06
435.084	9671.06
435.193	9487.06
435.301	9520.06
435.41	9380.06
435.519	9386.06
435.628	8707.06
435.737	8543.06
435.845	8398.06
435.954	8329.06
436.063	8236.06
436.171	8418.06
436.28	8281.06
436.389	8752.06
436.498	8424.06
436.606	8456.06
436.715	8559.06
436.823	8175.06
436.932	8071.06
437.041	8140.06
437.149	8060.06
437.258	7889.06
437.367	7696.06
437.475	7741.06
437.584	8056.06
437.692	7725.06
437.801	9378.06
437.91	7618.06
438.018	7620.06
438.127	7525.06
438.235	7682.06
438.344	7623.06
438.452	7600.06
438.561	7370.06
438.669	7526.06
438.778	7390.06
438.886	7474.06
438.995	7432.06
439.103	7565.06
439.212	7582.06
439.32	7559.06
439.428	7533.06
439.537	7671.06
439.645	7863.06
439.754	7727.06
439.862	7663.06
439.97	7665.06
440.079	7875.06
440.187	7690.06
440.295	7887.06
440.404	7914.06
440.512	7903.06
440.62	7961.06
440.729	8064.06
440.837	8242.06
440.945	9019.06
441.054	8534.06
441.162	8564.06
441.27	8942.06
441.378	9057.06
441.487	8980.06
441.595	9487.06
441.703	9028.06
441.811	8759.06
441.92	8536.06
442.028	8463.06
442.136	8483.06
442.244	8322.06
442.352	8597.06
442.461	8260.06
442.569	8306.06
442.677	8427.06
442.785	8500.06
442.893	8297.06
443.001	8476.06
443.109	8244.06
443.217	8466.06
443.325	8307.06
443.434	9192.06
443.542	8828.06
443.65	8675.06
443.758	8983.06
443.866	8920.06
443.974	9327.06
444.082	9355.06
444.19	9568.06
444.298	9787.06
444.406	10000.06
444.514	10342.06
444.622	10566.06
444.73	10321.06
444.838	10061.06
444.946	9880.06
445.054	9404.06
445.161	9335.06
445.269	9051.06
445.377	8923.06
445.485	8873.06
445.593	8584.06
445.701	8750.06
445.809	8592.06
445.917	8407.06
446.025	8312.06
446.132	8546.06
446.24	8584.06
446.348	8375.06
446.456	8212.06
446.564	8439.06
446.671	8441.06
446.779	8199.06
446.887	8187.06
446.995	8018.06
447.102	8295.06
447.21	8164.06
447.318	8108.06
447.426	7945.06
447.533	8336.06
447.641	9497.06
447.749	8092.06
447.856	8100.06
447.964	8069.06
448.072	8178.06
448.179	8011.06
448.287	8067.06
448.395	8060.06
448.502	7985.06
448.61	8093.06
448.718	8115.06
448.825	8110.06
448.933	8185.06
449.04	8284.06
449.148	8179.06
449.256	8199.06
449.363	8360.06
449.471	8265.06
449.578	8370.06
449.686	8394.06
449.793	8680.06
449.901	8363.06
450.008	8528.06
450.116	8658.06
450.223	8708.06
450.331	8786.06
450.438	9037.06
450.546	9013.06
450.653	9131.06
450.76	9414.06
450.868	9325.06
450.975	9543.06
451.083	9467.06
451.19	9476.06
451.297	9387.06
451.405	9455.06
451.512	9606.06
451.619	9740.06
451.727	9608.06
451.834	9504.06
451.941	9595.06
452.049	9470.06
452.156	9753.06
452.263	9907.06
452.371	9746.06
452.478	9902.06
452.585	9805.06
452.692	9788.06
452.8	9828.06
452.907	10068.06
453.014	9801.06
453.121	10018.06
453.229	10153.06
453.336	9956.06
453.443	10096.06
453.55	10159.06
453.657	9998.06
453.765	10273.06
453.872	10186.06
453.979	10213.06
454.086	10203.06
454.193	10411.06
454.3	10300.06
454.407	10374.06
454.514	10503.06
454.621	10288.06
454.729	10233.06
454.836	10354.06
454.943	10580.06
455.05	10472.06
455.157	10660.06
455.264	10464.06
455.371	10626.06
455.478	10593.06
455.585	11152.06
455.692	10816.06
455.799	10983.06
455.906	10898.06
456.013	10802.06
456.12	10823.06
456.227	10919.06
456.334	11087.06
456.44	11163.06
456.547	11147.06
456.654	11044.06
456.761	11207.06
456.868	11233.06
456.975	11265.06
457.082	11351.06
457.189	11198.06
457.296	11347.06
457.402	11463.06
457.509	11397.06
457.616	11604.06
457.723	12093.06
457.83	11888.06
457.936	11992.06
458.043	12527.06
458.15	12071.06
458.257	12397.06
458.363	12496.06
458.47	12848.06
458.577	12981.06
458.684	13157.06
458.79	13810.06
458.897	13817.06
459.004	14310.06
459.11	14344.06
459.217	14267.06
459.324	14534.06
459.43	14581.06
459.537	14581.06
459.644	14581.06
459.75	14581.06
459.857	14581.06
459.964	14581.06
460.07	14581.06
460.177	14581.06
460.283	14581.06
460.39	14581.06
460.496	14581.06
460.603	14581.06
460.71	14581.06
460.816	14581.06
460.923	14581.06
461.029	14581.06
461.136	14581.06
461.242	14581.06
461.349	14581.06
461.455	14581.06
461.562	14581.06
461.668	14581.06
461.774	14581.06
461.881	14581.06
461.987	14581.06
462.094	14581.06
462.2	14581.06
462.307	14581.06
462.413	14581.06
462.519	14581.06
462.626	14581.06
462.732	14581.06
462.838	14581.06
462.945	14581.06
463.051	14581.06
463.157	14581.06
463.264	14581.06
463.37	14581.06
463.476	14581.06
463.583	14581.06
463.689	14581.06
463.795	14581.06
463.901	14581.06
464.008	14581.06
464.114	14581.06
464.22	14581.06
464.326	14581.06
464.433	14581.06
464.539	14581.06
464.645	14581.06
464.751	14581.06
464.857	14581.06
464.963	14581.06
465.07	14581.06
465.176	14581.06
465.282	14430.06
465.388	14116.06
465.494	13506.06
465.6	13334.06
465.706	12991.06
465.812	12999.06
465.918	12953.06
466.024	12878.06
466.131	12512.06
466.237	12105.06
466.343	11992.06
466.449	11700.06
466.555	11619.06
466.661	11376.06
466.767	11456.06
466.873	11266.06
466.979	11497.06
467.085	11214.06
467.191	11347.06
467.296	11223.06
467.402	11319.06
467.508	11091.06
467.614	11186.06
467.72	10824.06
467.826	10584.06
467.932	10536.06
468.038	10379.06
468.144	10482.06
468.25	10172.06
468.355	10298.06
468.461	10316.06
468.567	10117.06
468.673	10073.06
468.779	10096.06
468.885	10052.06
468.99	10153.06
469.096	10235.06
469.202	10321.06
469.308	10301.06
469.413	10399.06
469.519	10523.06
469.625	10487.06
469.731	10667.06
469.836	10647.06
469.942	11008.06
470.048	10891.06
470.153	10942.06
470.259	10858.06
470.365	10979.06
470.47	10935.06
470.576	10704.06
470.682	10492.06
470.787	10540.06
470.893	10171.06
470.999	10155.06
471.104	10028.06
471.21	9606.06
471.315	9423.06
471.421	9372.06
471.527	9593.06
471.632	9500.06
471.738	9300.06
471.843	9172.06
471.949	9176.06
472.054	8979.06
472.16	8873.06
472.265	8929.06
472.371	8741.06
472.476	8747.06
472.582	8849.06
472.687	8646.06
472.793	8463.06
472.898	8519.06
473.003	8533.06
473.109	8336.06
473.214	8214.06
473.32	8308.06
473.425	8320.06
473.53	8359.06
473.636	8333.06
473.741	8320.06
473.847	8276.06
473.952	8407.06
474.057	8358.06
474.163	8330.06
474.268	8346.06
474.373	8380.06
474.478	8178.06
474.584	8270.06
474.689	8306.06
474.794	8209.06
474.9	8622.06
475.005	8302.06
475.11	8493.06
475.215	8331.06
475.321	8372.06
475.426	8587.06
475.531	8506.06
475.636	8354.06
475.741	8385.06
475.846	8603.06
475.952	8682.06
476.057	8511.06
476.162	8658.06
476.267	8688.06
476.372	8927.06
476.477	8573.06
476.582	8768.06
476.687	8736.06
476.793	8767.06
476.898	8829.06
477.003	8858.06
477.108	8942.06
477.213	8861.06
477.318	9070.06
477.423	9271.06
477.528	9438.06
477.633	9588.06
477.738	9765.06
477.843	9567.06
477.948	9831.06
478.053	9958.06
478.158	9932.06
478.263	9989.06
478.368	10211.06
478.473	10244.06
478.578	10292.06
478.682	10408.06
478.787	10560.06
478.892	10411.06
478.997	10587.06
479.102	10445.06
479.207	10377.06
479.312	10563.06
479.417	10608.06
479.521	10590.06
479.626	10680.06
479.731	10758.06
479.836	10890.06
479.941	11299.06
480.045	11383.06
480.15	11693.06
480.255	11682.06
480.36	11815.06
480.465	11669.06
480.569	11688.06
480.674	11294.06
480.779	10970.06
480.883	10974.06
480.988	10952.06
481.093	10739.06
481.197	10719.06
481.302	10708.06
481.407	10712.06
481.511	12743.06
481.616	10882.06
481.721	10767.06
481.825	11030.06
481.93	10547.06
482.035	10694.06
482.139	10813.06
482.244	10699.06
482.348	10941.06
482.453	11026.06
482.557	10931.06
482.662	10962.06
482.767	11099.06
482.871	11199.06
482.976	11152.06
483.08	11337.06
483.185	11543.06
483.289	11538.06
483.394	11540.06
483.498	11754.06
483.603	11639.06
483.707	11746.06
483.811	11865.06
483.916	12264.06
484.02	12028.06
484.125	12313.06
484.229	12360.06
484.333	12513.06
484.438	12480.06
484.542	12758.06
484.647	12779.06
484.751	12883.06
484.855	13062.06
484.96	13100.06
485.064	13262.06
485.168	13261.06
485.273	13286.06
485.377	13435.06
485.481	13692.06
485.585	13812.06
485.69	13767.06
485.794	13770.06
485.898	13781.06
486.002	13808.06
486.107	13774.06
486.211	13693.06
486.315	13847.06
486.419	13859.06
486.524	13810.06
486.628	13868.06
486.732	13756.06
486.836	13769.06
486.94	14042.06
487.044	13937.06
487.148	13909.06
487.253	13946.06
487.357	13859.06
487.461	13943.06
487.565	13654.06
487.669	13728.06
487.773	13746.06
487.877	13872.06
487.981	13856.06
488.085	13636.06
488.189	13729.06
488.293	13921.06
488.397	14151.06
488.501	13717.06
488.605	13742.06
488.709	13576.06
488.813	13685.06
488.917	13672.06
489.021	13662.06
489.125	13919.06
489.229	13507.06
489.333	14018.06
489.437	13799.06
489.541	14025.06
489.645	13964.06
489.749	13911.06
489.853	13942.06
489.956	13795.06
490.06	13891.06
490.164	13770.06
490.268	13745.06
490.372	13869.06
490.476	13767.06
490.579	13855.06
490.683	14581.06
490.787	14001.06
490.891	13664.06
490.995	13822.06
491.098	13761.06
491.202	13767.06
491.306	13849.06
491.41	13635.06
491.513	13589.06
491.617	13717.06
491.721	13948.06
491.824	13697.06
491.928	13649.06
492.032	13913.06
492.136	13780.06
492.239	13819.06
492.343	13891.06
492.446	14310.06
492.55	13834.06
492.654	13602.06
492.757	13637.06
492.861	13870.06
492.965	13754.06
493.068	13802.06
493.172	13796.06
493.275	13919.06
493.379	13796.06
493.482	13863.06
493.586	13992.06
493.689	14177.06
493.793	13879.06
493.896	14051.06
494	14043.06
494.103	14256.06
494.207	14355.06
494.31	14411.06
494.414	14004.06
494.517	13890.06
494.621	13712.06
494.724	13707.06
494.828	13579.06
494.931	13592.06
495.034	13630.06
495.138	13752.06
495.241	13480.06
495.345	14385.06
495.448	13548.06
495.551	13490.06
495.655	13443.06
495.758	13501.06
495.861	13447.06
495.965	13366.06
496.068	13564.06
496.171	13569.06
496.274	13506.06
496.378	13718.06
496.481	13662.06
496.584	13631.06
496.687	13797.06
496.791	13697.06
496.894	14021.06
496.997	14025.06
497.1	14005.06
497.204	14106.06
497.307	14172.06
497.41	14581.06
497.513	14581.06
497.616	14581.06
497.719	14581.06
497.823	14581.06
497.926	14581.06
498.029	14581.06
498.132	14581.06
498.235	14581.06
498.338	14581.06
498.441	14581.06
498.544	14581.06
498.647	14581.06
498.75	14581.06
498.853	14581.06
498.956	14581.06
499.059	14581.06
499.163	14581.06
499.266	14581.06
499.369	14581.06
499.471	14581.06
499.574	14581.06
499.677	14581.06
499.78	14581.06
499.883	14581.06
499.986	14581.06
500.089	14581.06
500.192	14581.06
500.295	14581.06
500.398	14581.06
500.501	14581.06
500.604	14581.06
500.707	14581.06
500.809	14581.06
500.912	14581.06
501.015	14581.06
501.118	14581.06
501.221	14581.06
501.324	14581.06
501.426	14581.06
501.529	14581.06
501.632	14581.06
501.735	14581.06
501.837	14581.06
501.94	14581.06
502.043	14581.06
502.146	14581.06
502.248	14581.06
502.351	14581.06
502.454	14581.06
502.557	14581.06
502.659	14581.06
502.762	14064.06
502.865	13756.06
502.967	13437.06
503.07	13182.06
503.173	12967.06
503.275	12905.06
503.378	12883.06
503.48	12546.06
503.583	12589.06
503.686	12539.06
503.788	12737.06
503.891	12495.06
503.993	12655.06
504.096	12512.06
504.198	12721.06
504.301	12780.06
504.403	12946.06
504.506	12651.06
504.608	12503.06
504.711	11905.06
504.813	11445.06
504.916	11302.06
505.018	10988.06
505.121	10715.06
505.223	10642.06
505.326	10420.06
505.428	10427.06
505.531	10169.06
505.633	10152.06
505.735	9972.06
505.838	9736.06
505.94	9712.06
506.042	9701.06
506.145	9492.06
506.247	9685.06
506.35	9466.06
506.452	9481.06
506.554	9492.06
506.656	9403.06
506.759	9300.06
506.861	9222.06
506.963	9035.06
507.066	9218.06
507.168	9168.06
507.27	9131.06
507.372	9027.06
507.475	8974.06
507.577	8940.06
507.679	8854.06
507.781	8895.06
507.883	8726.06
507.986	8553.06
508.088	8803.06
508.19	8683.06
508.292	8545.06
508.394	8726.06
508.496	8560.06
508.598	8551.06
508.701	8573.06
508.803	8554.06
508.905	8471.06
509.007	8399.06
509.109	8471.06
509.211	8536.06
509.313	8339.06
509.415	8276.06
509.517	8377.06
509.619	8353.06
509.721	8480.06
509.823	8279.06
509.925	8620.06
510.027	8337.06
510.129	8377.06
510.231	8299.06
510.333	8192.06
510.435	8244.06
510.537	8304.06
510.639	8315.06
510.741	8277.06
510.843	8172.06
510.945	8176.06
511.047	8308.06
511.148	8317.06
511.25	8200.06
511.352	8387.06
511.454	8180.06
511.556	8384.06
511.658	8188.06
511.76	8275.06
511.861	8502.06
511.963	8198.06
512.065	8286.06
512.167	8140.06
512.268	8559.06
512.37	8320.06
512.472	8373.06
512.574	8268.06
512.676	8340.06
512.777	8313.06
512.879	8279.06
512.981	8376.06
513.082	8448.06
513.184	8354.06
513.286	8849.06
513.387	8621.06
513.489	8728.06
513.591	8500.06
513.692	8571.06
513.794	8517.06
513.896	8418.06
513.997	8480.06
514.099	8517.06
514.2	8715.06
514.302	8672.06
514.404	8817.06
514.505	8669.06
514.607	8923.06
514.708	8787.06
514.81	8963.06
514.911	8915.06
515.013	9206.06
515.114	9044.06
515.216	8955.06
515.317	9316.06
515.419	9166.06
515.52	9370.06
515.622	9262.06
515.723	9618.06
515.825	9901.06
515.926	9732.06
516.027	9930.06
516.129	10076.06
516.23	10185.06
516.332	10465.06
516.433	10632.06
516.534	10754.06
516.636	11025.06
516.737	11194.06
516.838	12728.06
516.94	11927.06
517.041	12292.06
517.142	12634.06
517.244	12779.06
517.345	13088.06
517.446	13122.06
517.547	13311.06
517.649	13265.06
517.75	13322.06
517.851	13112.06
517.952	13330.06
518.054	12805.06
518.155	12740.06
518.256	12307.06
518.357	12308.06
518.458	11691.06
518.56	11678.06
518.661	11429.06
518.762	11138.06
518.863	11182.06
518.964	10982.06
519.065	10730.06
519.166	10589.06
519.268	10363.06
519.369	10734.06
519.47	10247.06
519.571	10261.06
519.672	10240.06
519.773	9903.06
519.874	10021.06
519.975	10147.06
520.076	9937.06
520.177	9945.06
520.278	9936.06
520.379	9984.06
520.48	9719.06
520.581	9830.06
520.682	9855.06
520.783	9775.06
520.884	9808.06
520.985	9895.06
521.086	9614.06
521.187	9652.06
521.288	9571.06
521.389	9542.06
521.489	9431.06
521.59	9500.06
521.691	9560.06
521.792	9441.06
521.893	9662.06
521.994	9568.06
522.095	9491.06
522.195	9648.06
522.296	9711.06
522.397	9464.06
522.498	9467.06
522.599	9526.06
522.699	9485.06
522.8	9377.06
522.901	9598.06
523.002	9390.06
523.102	9759.06
523.203	9585.06
523.304	9612.06
523.405	9395.06
523.505	9421.06
523.606	9547.06
523.707	9496.06
523.807	9387.06
523.908	9537.06
524.009	9635.06
524.109	9530.06
524.21	9508.06
524.31	9489.06
524.411	9681.06
524.512	9658.06
524.612	9501.06
524.713	9745.06
524.813	9402.06
524.914	9817.06
525.014	14581.06
525.115	9902.06
525.216	9446.06
525.316	9528.06
525.417	9563.06
525.517	9457.06
525.618	9402.06
525.718	9492.06
525.819	9566.06
525.919	9668.06
526.019	9569.06
526.12	9496.06
526.22	9478.06
526.321	9418.06
526.421	9416.06
526.522	9472.06
526.622	9356.06
526.722	9415.06
526.823	9659.06
526.923	9529.06
527.023	9609.06
527.124	9563.06
527.224	9716.06
527.324	9451.06
527.425	9482.06
527.525	9481.06
527.625	9482.06
527.726	9437.06
527.826	9616.06
527.926	9559.06
528.026	9559.06
528.127	9489.06
528.227	9533.06
528.327	9556.06
528.427	9438.06
528.528	9526.06
528.628	9476.06
528.728	9471.06
528.828	9653.06
528.928	9498.06
529.029	9346.06
529.129	9580.06
529.229	9528.06
529.329	9392.06
529.429	9537.06
529.529	9603.06
529.629	9460.06
529.729	9470.06
529.829	9597.06
529.93	9218.06
530.03	9410.06
530.13	9413.06
530.23	9437.06
530.33	9419.06
530.43	9421.06
530.53	9383.06
530.63	9199.06
530.73	9324.06
530.83	9304.06
530.93	9307.06
531.03	9388.06
531.13	9470.06
531.23	9293.06
531.33	9303.06
531.429	9450.06
531.529	9489.06
531.629	9248.06
531.729	9278.06
531.829	9288.06
531.929	9283.06
532.029	9291.06
532.129	9150.06
532.229	9320.06
532.328	9214.06
532.428	9115.06
532.528	9047.06
532.628	9111.06
532.728	9179.06
532.827	8835.06
532.927	9002.06
533.027	8923.06
533.127	9120.06
533.227	8991.06
533.326	8942.06
533.426	8840.06
533.526	9044.06
533.625	8987.06
533.725	9146.06
533.825	8839.06
533.924	8761.06
534.024	8723.06
534.124	8644.06
534.223	8709.06
534.323	9208.06
534.423	8604.06
534.522	8541.06
534.622	8479.06
534.722	8515.06
534.821	8504.06
534.921	8416.06
535.02	8423.06
535.12	8428.06
535.219	8476.06
535.319	8426.06
535.419	8342.06
535.518	8160.06
535.618	8194.06
535.717	8321.06
535.817	8006.06
535.916	7988.06
536.016	7970.06
536.115	7940.06
536.215	7884.06
536.314	7856.06
536.413	7730.06
536.513	7890.06
536.612	7774.06
536.712	7588.06
536.811	7737.06
536.91	7682.06
537.01	7540.06
537.109	7787.06
537.209	7627.06
537.308	7543.06
537.407	7475.06
537.507	7481.06
537.606	7637.06
537.705	7596.06
537.805	7468.06
537.904	7427.06
538.003	7421.06
538.102	7596.06
538.202	7536.06
538.301	7503.06
538.4	7512.06
538.499	7376.06
538.599	7448.06
538.698	7489.06
538.797	7240.06
538.896	7384.06
538.995	7193.06
539.095	7169.06
539.194	7391.06
539.293	7086.06
539.392	7097.06
539.491	7183.06
539.59	7206.06
539.689	7197.06
539.789	7090.06
539.888	7000.06
539.987	6822.06
540.086	7051.06
540.185	7009.06
540.284	7048.06
540.383	6916.06
540.482	6886.06
540.581	6905.06
540.68	6830.06
540.779	7060.06
540.878	6900.06
540.977	6899.06
541.076	6857.06
541.175	6836.06
541.274	7072.06
541.373	6877.06
541.472	6929.06
541.571	6695.06
541.67	8268.06
541.769	6955.06
541.868	6656.06
541.966	6794.06
542.065	6777.06
542.164	6703.06
542.263	6590.06
542.362	6632.06
542.461	6787.06
542.56	6735.06
542.658	6749.06
542.757	6609.06
542.856	6524.06
542.955	6535.06
543.054	6558.06
543.152	6788.06
543.251	6567.06
543.35	6888.06
543.449	6647.06
543.547	6488.06
543.646	6459.06
543.745	6657.06
543.843	6554.06
543.942	6613.06
544.041	6564.06
544.14	6607.06
544.238	6543.06
544.337	6843.06
544.436	6687.06
544.534	6839.06
544.633	6695.06
544.731	6673.06
544.83	6781.06
544.929	6732.06
545.027	6684.06
545.126	6657.06
545.224	6825.06
545.323	6798.06
545.421	6768.06
545.52	6769.06
545.619	6823.06
545.717	6689.06
545.816	6826.06
545.914	6772.06
546.013	6848.06
546.111	6842.06
546.209	6548.06
546.308	6680.06
546.406	6549.06
546.505	6785.06
546.603	6705.06
546.702	6590.06
546.8	6627.06
546.899	6621.06
546.997	6719.06
547.095	6607.06
547.194	6603.06
547.292	6708.06
547.39	6789.06
547.489	6699.06
547.587	7199.06
547.685	6702.06
547.784	7000.06
547.882	6824.06
547.98	6742.06
548.079	6870.06
548.177	6791.06
548.275	6614.06
548.373	6848.06
548.472	6612.06
548.57	6612.06
548.668	6753.06
548.766	6671.06
548.864	6856.06
548.963	6764.06
549.061	7010.06
549.159	6772.06
549.257	6986.06
549.355	6804.06
549.454	6959.06
549.552	6961.06
549.65	6940.06
549.748	6866.06
549.846	6712.06
549.944	6634.06
550.042	6661.06
550.14	6648.06
550.238	6659.06
550.336	6610.06
550.434	6432.06
550.532	6501.06
550.631	6625.06
550.729	6557.06
550.827	6581.06
550.925	6459.06
551.023	6477.06
551.121	6507.06
551.218	6499.06
551.316	6377.06
551.414	6532.06
551.512	6461.06
551.61	6690.06
551.708	6819.06
551.806	6759.06
551.904	6680.06
552.002	6820.06
552.1	6760.06
552.198	6799.06
552.296	7136.06
552.393	7100.06
552.491	7373.06
552.589	7331.06
552.687	7538.06
552.785	7426.06
552.882	7598.06
552.98	7821.06
553.078	7680.06
553.176	7792.06
553.274	7561.06
553.371	7552.06
553.469	7621.06
553.567	7520.06
553.665	7468.06
553.762	7790.06
553.86	7338.06
553.958	7295.06
554.055	7025.06
554.153	7154.06
554.251	7066.06
554.348	6850.06
554.446	6720.06
554.544	6843.06
554.641	7149.06
554.739	6679.06
554.837	6744.06
554.934	6635.06
555.032	6497.06
555.129	6525.06
555.227	6817.06
555.324	10304.06
555.422	6729.06
555.519	6370.06
555.617	6232.06
555.715	6088.06
555.812	6678.06
555.91	6093.06
556.007	6122.06
556.105	6180.06
556.202	6208.06
556.299	5999.06
556.397	6086.06
556.494	6119.06
556.592	6005.06
556.689	6110.06
556.787	6024.06
556.884	5981.06
556.981	6014.06
557.079	6007.06
557.176	6027.06
557.273	5956.06
557.371	6067.06
557.468	6001.06
557.566	5986.06
557.663	5927.06
557.76	6051.06
557.857	5858.06
557.955	5912.06
558.052	6086.06
558.149	6138.06
558.247	6206.06
558.344	6000.06
558.441	5960.06
558.538	5950.06
558.636	6035.06
558.733	6075.06
558.83	6004.06
558.927	6021.06
559.024	6059.06
559.122	6005.06
559.219	6002.06
559.316	6077.06
559.413	6183.06
559.51	5973.06
559.607	6111.06
559.704	5982.06
559.801	6011.06
559.899	6061.06
559.996	6321.06
560.093	6212.06
560.19	5903.06
560.287	6269.06
560.384	6271.06
560.481	6071.06
560.578	6102.06
560.675	6072.06
560.772	6183.06
560.869	6136.06
560.966	6353.06
561.063	6087.06
561.16	6261.06
561.257	6236.06
561.354	6153.06
561.451	6188.06
561.548	6261.06
561.645	6316.06
561.742	6265.06
561.838	6304.06
561.935	6210.06
562.032	6182.06
562.129	6241.06
562.226	6244.06
562.323	6125.06
562.42	6277.06
562.516	6276.06
562.613	6288.06
562.71	6253.06
562.807	7362.06
562.904	6394.06
563	6467.06
563.097	6528.06
563.194	6506.06
563.291	6427.06
563.387	6576.06
563.484	6499.06
563.581	6388.06
563.678	6556.06
563.774	7054.06
563.871	6753.06
563.968	6755.06
564.064	6937.06
564.161	6705.06
564.258	6768.06
564.354	7080.06
564.451	6979.06
564.548	7188.06
564.644	7143.06
564.741	7180.06
564.837	7102.06
564.934	7317.06
565.031	7527.06
565.127	7568.06
565.224	7618.06
565.32	8009.06
565.417	7818.06
565.513	7953.06
565.61	8413.06
565.706	8606.06
565.803	8612.06
565.899	8856.06
565.996	9313.06
566.092	9504.06
566.189	9858.06
566.285	10313.06
566.382	10707.06
566.478	11346.06
566.574	11583.06
566.671	11488.06
566.767	11544.06
566.864	11369.06
566.96	11421.06
567.056	11482.06
567.153	12033.06
567.249	12075.06
567.345	12452.06
567.442	13088.06
567.538	13297.06
567.634	13479.06
567.731	13924.06
567.827	13892.06
567.923	13506.06
568.019	13022.06
568.116	12284.06
568.212	11530.06
568.308	11313.06
568.404	10771.06
568.501	10372.06
568.597	10055.06
568.693	9726.06
568.789	10238.06
568.885	8974.06
568.982	8840.06
569.078	8447.06
569.174	8247.06
569.27	8027.06
569.366	7928.06
569.462	7764.06
569.558	7481.06
569.655	7518.06
569.751	7412.06
569.847	7243.06
569.943	7185.06
570.039	7102.06
570.135	7689.06
570.231	7113.06
570.327	7263.06
570.423	7203.06
570.519	7034.06
570.615	7282.06
570.711	7294.06
570.807	7260.06
570.903	7263.06
570.999	7187.06
571.095	7137.06
571.191	6932.06
571.287	6964.06
571.383	6807.06
571.479	6642.06
571.574	6659.06
571.67	6439.06
571.766	6518.06
571.862	6423.06
571.958	6151.06
572.054	6156.06
572.15	6056.06
572.246	5953.06
572.341	6085.06
572.437	5898.06
572.533	5999.06
572.629	5894.06
572.725	5788.06
572.82	5779.06
572.916	5832.06
573.012	5690.06
573.108	5894.06
573.203	5722.06
573.299	5682.06
573.395	5644.06
573.49	5502.06
573.586	5564.06
573.682	5571.06
573.778	5618.06
573.873	5476.06
573.969	5508.06
574.065	5441.06
574.16	5471.06
574.256	5487.06
574.351	5673.06
574.447	5465.06
574.543	5448.06
574.638	5649.06
574.734	5509.06
574.829	5641.06
574.925	5424.06
575.02	5310.06
575.116	5256.06
575.212	5339.06
575.307	5368.06
575.403	5071.06
575.498	5194.06
575.594	5087.06
575.689	5202.06
575.784	5098.06
575.88	5101.06
575.975	5081.06
576.071	5039.06
576.166	4935.06
576.262	4968.06
576.357	4977.06
576.452	5186.06
576.548	4996.06
576.643	4828.06
576.739	4967.06
576.834	5063.06
576.929	4910.06
577.025	5070.06
577.12	4844.06
577.215	4790.06
577.311	4845.06
577.406	4852.06
577.501	4955.06
577.597	4560.06
577.692	4819.06
577.787	4770.06
577.882	4576.06
577.978	4724.06
578.073	4576.06
578.168	4591.06
578.263	4568.06
578.358	4488.06
578.454	4552.06
578.549	4409.06
578.644	4380.06
578.739	4484.06
578.834	4343.06
578.929	4350.06
579.025	4380.06
579.12	4411.06
579.215	4558.06
579.31	4625.06
579.405	4196.06
579.5	4371.06
579.595	4284.06
579.69	4240.06
579.785	4164.06
579.88	4137.06
579.975	4253.06
580.07	4134.06
580.165	4239.06
580.26	4338.06
580.355	4109.06
580.45	4096.06
580.545	4095.06
580.64	4125.06
580.735	4121.06
580.83	4137.06
580.925	3997.06
581.02	3919.06
581.115	4033.06
581.21	3971.06
581.305	4042.06
581.4	4020.06
581.495	4057.06
581.589	3889.06
581.684	3887.06
581.779	4028.06
581.874	4034.06
581.969	3823.06
582.064	3855.06
582.158	3812.06
582.253	3804.06
582.348	3865.06
582.443	3843.06
582.537	3774.06
582.632	3968.06
582.727	3846.06
582.822	3723.06
582.916	3711.06
583.011	3799.06
583.106	3839.06
583.201	3688.06
583.295	3665.06
583.39	3650.06
583.485	3682.06
583.579	5693.06
583.674	3863.06
583.769	3952.06
583.863	3605.06
583.958	3663.06
584.052	3555.06
584.147	3519.06
584.242	3547.06
584.336	3626.06
584.431	3799.06
584.525	3570.06
584.62	3803.06
584.714	3530.06
584.809	3545.06
584.903	3583.06
584.998	3594.06
585.092	3528.06
585.187	3500.06
585.281	3431.06
585.376	3493.06
585.47	3555.06
585.565	3460.06
585.659	3410.06
585.754	3492.06
585.848	3595.06
585.942	3363.06
586.037	3453.06
586.131	6031.06
586.226	3580.06
586.32	3488.06
586.414	3416.06
586.509	3529.06
586.603	3509.06
586.697	3507.06
586.792	3346.06
586.886	3336.06
586.98	3521.06
587.075	3343.06
587.169	3292.06
587.263	3554.06
587.357	3416.06
587.452	3235.06
587.546	3479.06
587.64	3347.06
587.734	3327.06
587.829	3376.06
587.923	3425.06
588.017	3484.06
588.111	3505.06
588.205	3624.06
588.3	3574.06
588.394	3545.06
588.488	3800.06
588.582	4115.06
588.676	4820.06
588.77	7749.06
588.864	14581.06
588.958	14581.06
589.052	11558.06
589.147	7495.06
589.241	5717.06
589.335	5742.06
589.429	10359.06
589.523	12752.06
589.617	10319.06
589.711	6882.06
589.805	4951.06
589.899	4163.06
589.993	3726.06
590.087	3571.06
590.181	3403.06
590.275	3448.06
590.369	3387.06
590.462	3325.06
590.556	3228.06
590.65	3303.06
590.744	3313.06
590.838	3257.06
590.932	3249.06
591.026	3372.06
591.12	3469.06
591.214	3348.06
591.307	3333.06
591.401	3329.06
591.495	3387.06
591.589	3321.06
591.683	3336.06
591.777	3450.06
591.87	3802.06
591.964	3498.06
592.058	3391.06
592.152	3592.06
592.245	3613.06
592.339	3693.06
592.433	3906.06
592.527	3872.06
592.62	3770.06
592.714	3770.06
592.808	3973.06
592.901	3940.06
592.995	3831.06
593.089	4130.06
593.182	4014.06
593.276	3933.06
593.37	3932.06
593.463	3916.06
593.557	4000.06
593.65	3888.06
593.744	3997.06
593.837	4123.06
593.931	4069.06
594.025	8188.06
594.118	4362.06
594.212	3844.06
594.305	3795.06
594.399	3904.06
594.492	4106.06
594.586	3723.06
594.679	3592.06
594.773	3444.06
594.866	3501.06
594.96	3421.06
595.053	3295.06
595.146	3330.06
595.24	3224.06
595.333	3152.06
595.427	3040.06
595.52	3016.06
595.614	3259.06
595.707	3059.06
595.8	2959.06
595.894	3011.06
595.987	2850.06
596.08	2840.06
596.174	3144.06
596.267	2955.06
596.36	2921.06
596.454	2980.06
596.547	2870.06
596.64	2592.06
596.733	2663.06
596.827	2821.06
596.92	2627.06
597.013	2559.06
597.106	2627.06
597.2	2587.06
597.293	2614.06
597.386	2807.06
597.479	2585.06
597.572	2610.06
597.666	2498.06
597.759	2511.06
597.852	2600.06
597.945	2477.06
598.038	2475.06
598.131	2505.06
598.224	2540.06
598.317	2643.06
598.411	2508.06
598.504	2471.06
598.597	2547.06
598.69	2398.06
598.783	2376.06
598.876	2504.06
598.969	2466.06
599.062	2361.06
599.155	2541.06
599.248	2501.06
599.341	2484.06
599.434	2367.06
599.527	2520.06
599.62	2403.06
599.713	2403.06
599.806	2506.06
599.899	2548.06
599.991	2390.06
600.084	2595.06
600.177	2337.06
600.27	2291.06
600.363	2502.06
600.456	2385.06
600.549	2329.06
600.642	2309.06
600.734	2369.06
600.827	2296.06
600.92	2456.06
601.013	2380.06
601.106	2413.06
601.199	2242.06
601.291	2320.06
601.384	2357.06
601.477	2464.06
601.57	2325.06
601.662	2263.06
601.755	2242.06
601.848	2308.06
601.94	2250.06
602.033	2335.06
602.126	2357.06
602.219	2308.06
602.311	2340.06
602.404	2240.06
602.497	2236.06
602.589	2154.06
602.682	2287.06
602.774	2266.06
602.867	2285.06
602.96	2259.06
603.052	2210.06
603.145	2222.06
603.237	2223.06
603.33	2236.06
603.422	2388.06
603.515	2172.06
603.608	2216.06
603.7	2234.06
603.793	2173.06
603.885	2168.06
603.978	2182.06
604.07	2206.06
604.163	2144.06
604.255	2241.06
604.347	2139.06
604.44	2117.06
604.532	2263.06
604.625	2243.06
604.717	2097.06
604.81	2221.06
604.902	2245.06
604.994	2169.06
605.087	2104.06
605.179	2166.06
605.271	2175.06
605.364	2133.06
605.456	2192.06
605.548	2205.06
605.641	2109.06
605.733	2098.06
605.825	2189.06
605.918	2078.06
606.01	2297.06
606.102	2487.06
606.194	2130.06
606.287	2282.06
606.379	2129.06
606.471	2154.06
606.563	2135.06
606.655	2187.06
606.748	2297.06
606.84	2115.06
606.932	2161.06
607.024	2107.06
607.116	2052.06
607.208	2089.06
607.301	2140.06
607.393	2085.06
607.485	2106.06
607.577	2177.06
607.669	2271.06
607.761	2130.06
607.853	2407.06
607.945	2060.06
608.037	2023.06
608.129	2088.06
608.221	2134.06
608.313	2036.06
608.405	2096.06
608.497	2093.06
608.589	2090.06
608.681	2095.06
608.773	2167.06
608.865	2154.06
608.957	2039.06
609.049	2002.06
609.141	2118.06
609.233	2048.06
609.325	1936.06
609.417	2093.06
609.509	2119.06
609.601	2215.06
609.693	2213.06
609.784	2091.06
609.876	2060.06
609.968	2041.06
610.06	4991.06
610.152	2266.06
610.244	2345.06
610.335	2083.06
610.427	1977.06
610.519	1980.06
610.611	2059.06
610.702	1982.06
610.794	2001.06
610.886	2056.06
610.978	1982.06
611.069	2503.06
611.161	1927.06
611.253	2017.06
611.344	1843.06
611.436	1776.06
611.528	1901.06
611.62	1807.06
611.711	1822.06
611.803	1806.06
611.894	1712.06
611.986	1684.06
612.078	1700.06
612.169	1754.06
612.261	1637.06
612.352	1579.06
612.444	1631.06
612.536	1727.06
612.627	1550.06
612.719	1513.06
612.81	1467.06
612.902	1418.06
612.993	1485.06
613.085	1460.06
613.176	1355.06
613.268	1429.06
613.359	1391.06
613.451	1315.06
613.542	1320.06
613.634	1307.06
613.725	1303.06
613.816	1379.06
613.908	1277.06
613.999	1234.06
614.091	1120.06
614.182	1099.06
614.273	1188.06
614.365	1063.06
614.456	987.06
614.547	1025.06
614.639	960.06
614.73	972.06
614.821	1112.06
614.913	913.06
615.004	910.06
615.095	893.06
615.187	835.06
