Data from 35g_HRC06701__25__452.txt Node

Date: Thu Apr 18 02:31:57 CDT 2024
User: Estudiantes 2
Spectrometer: HR+C0670
Trigger mode: 4
Integration Time (sec): 1.000000E0
Scans to average: 1
Electric dark correction enabled: true
Nonlinearity correction enabled: false
Boxcar width: 0
XAxis mode: Wavelengths
Number of Pixels in Spectrum: 2048
>>>>>Begin Spectral Data<<<<<
407.81	-113.62
407.921	-113.62
408.032	-113.62
408.143	-169.62
408.254	-137.62
408.365	70.38
408.476	271.38
408.587	-30.62
408.699	-2.62
408.81	-20.62
408.921	-51.62
409.032	-27.62
409.143	63.38
409.254	-6.62
409.365	76.38
409.476	-18.62
409.587	6.38
409.698	91.38
409.809	91.38
409.92	-40.62
410.031	-20.62
410.142	86.38
410.253	55.38
410.364	33.38
410.475	1064.38
410.585	5415.38
410.696	5725.38
410.807	5569.38
410.918	5651.38
411.029	5789.38
411.14	5737.38
411.251	5748.38
411.362	5899.38
411.472	5894.38
411.583	5807.38
411.694	6094.38
411.805	5973.38
411.916	6103.38
412.026	6133.38
412.137	5959.38
412.248	5804.38
412.359	5904.38
412.47	5700.38
412.58	5695.38
412.691	5906.38
412.802	5656.38
412.912	5797.38
413.023	5735.38
413.134	5711.38
413.245	5764.38
413.355	5710.38
413.466	5839.38
413.577	5683.38
413.687	5854.38
413.798	5600.38
413.909	5816.38
414.019	5746.38
414.13	5835.38
414.24	5867.38
414.351	5951.38
414.462	6046.38
414.572	5896.38
414.683	5796.38
414.793	5914.38
414.904	6345.38
415.014	5877.38
415.125	5676.38
415.235	5837.38
415.346	6004.38
415.456	6011.38
415.567	5959.38
415.677	5783.38
415.788	5815.38
415.898	5824.38
416.009	5752.38
416.119	5924.38
416.23	5843.38
416.34	5827.38
416.45	5876.38
416.561	6300.38
416.671	5882.38
416.782	5778.38
416.892	5969.38
417.002	6073.38
417.113	6077.38
417.223	6026.38
417.333	6026.38
417.444	6110.38
417.554	6072.38
417.664	6279.38
417.775	6156.38
417.885	6316.38
417.995	6248.38
418.106	6718.38
418.216	6419.38
418.326	6682.38
418.436	6847.38
418.547	6675.38
418.657	6785.38
418.767	7007.38
418.877	6860.38
418.987	6857.38
419.098	6877.38
419.208	6942.38
419.318	6932.38
419.428	6920.38
419.538	6850.38
419.648	6906.38
419.759	6864.38
419.869	6865.38
419.979	6801.38
420.089	6821.38
420.199	6839.38
420.309	6924.38
420.419	6869.38
420.529	6932.38
420.639	7142.38
420.749	7077.38
420.859	7199.38
420.969	7147.38
421.079	7272.38
421.189	6877.38
421.299	6951.38
421.409	7045.38
421.519	7100.38
421.629	7387.38
421.739	7365.38
421.849	7192.38
421.959	7274.38
422.069	7453.38
422.179	7455.38
422.289	7499.38
422.399	7667.38
422.509	7827.38
422.619	9856.38
422.729	8054.38
422.838	7933.38
422.948	8059.38
423.058	8022.38
423.168	8129.38
423.278	8226.38
423.388	8343.38
423.498	8587.38
423.607	8401.38
423.717	8813.38
423.827	8899.38
423.937	8646.38
424.046	8743.38
424.156	8830.38
424.266	8651.38
424.376	8977.38
424.485	8919.38
424.595	8781.38
424.705	8896.38
424.815	8851.38
424.924	9410.38
425.034	8826.38
425.144	8874.38
425.253	8879.38
425.363	9085.38
425.473	8883.38
425.582	8816.38
425.692	8820.38
425.801	8806.38
425.911	9072.38
426.021	9014.38
426.13	9083.38
426.24	9186.38
426.349	9251.38
426.459	9131.38
426.568	9107.38
426.678	9299.38
426.787	9281.38
426.897	9220.38
427.006	9258.38
427.116	9368.38
427.225	9313.38
427.335	9619.38
427.444	9451.38
427.554	9428.38
427.663	9440.38
427.773	9564.38
427.882	9789.38
427.992	9593.38
428.101	9694.38
428.21	9585.38
428.32	9842.38
428.429	9800.38
428.539	10164.38
428.648	9897.38
428.757	9864.38
428.867	10114.38
428.976	10306.38
429.085	10100.38
429.195	10206.38
429.304	10141.38
429.413	10347.38
429.523	10221.38
429.632	10253.38
429.741	10365.38
429.85	10267.38
429.96	10676.38
430.069	10402.38
430.178	10476.38
430.287	10807.38
430.397	10699.38
430.506	10491.38
430.615	10645.38
430.724	10772.38
430.833	10826.38
430.943	10863.38
431.052	10886.38
431.161	11069.38
431.27	11353.38
431.379	11414.38
431.488	11921.38
431.597	11589.38
431.706	11912.38
431.816	11861.38
431.925	11754.38
432.034	11675.38
432.143	11717.38
432.252	11534.38
432.361	11795.38
432.47	11714.38
432.579	11646.38
432.688	11611.38
432.797	11768.38
432.906	11639.38
433.015	11795.38
433.124	12101.38
433.233	11963.38
433.342	11897.38
433.451	11937.38
433.56	11799.38
433.669	12037.38
433.778	11943.38
433.886	12258.38
433.995	12189.38
434.104	12809.38
434.213	12664.38
434.322	12765.38
434.431	13340.38
434.54	13530.38
434.649	13889.38
434.757	13675.38
434.866	13651.38
434.975	13363.38
435.084	13019.38
435.193	12753.38
435.301	12670.38
435.41	12622.38
435.519	12490.38
435.628	11758.38
435.737	11580.38
435.845	11376.38
435.954	11302.38
436.063	11266.38
436.171	11408.38
436.28	11316.38
436.389	11562.38
436.498	11280.38
436.606	11479.38
436.715	11457.38
436.823	11059.38
436.932	10964.38
437.041	10862.38
437.149	10763.38
437.258	10566.38
437.367	10405.38
437.475	10513.38
437.584	10759.38
437.692	10359.38
437.801	12043.38
437.91	10416.38
438.018	10435.38
438.127	10319.38
438.235	10299.38
438.344	10428.38
438.452	10251.38
438.561	10172.38
438.669	10217.38
438.778	10176.38
438.886	10190.38
438.995	10049.38
439.103	10273.38
439.212	10198.38
439.32	10390.38
439.428	10269.38
439.537	10336.38
439.645	10539.38
439.754	10561.38
439.862	10335.38
439.97	10476.38
440.079	10703.38
440.187	10453.38
440.295	10681.38
440.404	10730.38
440.512	10875.38
440.62	10803.38
440.729	10924.38
440.837	11094.38
440.945	11956.38
441.054	11539.38
441.162	11667.38
441.27	12128.38
441.378	12368.38
441.487	12234.38
441.595	12629.38
441.703	12151.38
441.811	11918.38
441.92	11767.38
442.028	11575.38
442.136	11609.38
442.244	11479.38
442.352	11476.38
442.461	11190.38
442.569	11463.38
442.677	11558.38
442.785	11512.38
442.893	11247.38
443.001	11238.38
443.109	11403.38
443.217	11427.38
443.325	11344.38
443.434	12200.38
443.542	12092.38
443.65	11865.38
443.758	11922.38
443.866	12251.38
443.974	12717.38
444.082	12780.38
444.19	13206.38
444.298	13490.38
444.406	13906.38
444.514	14300.38
444.622	14347.38
444.73	14381.38
444.838	13902.38
444.946	13587.38
445.054	12922.38
445.161	12726.38
445.269	12303.38
445.377	12101.38
445.485	11885.38
445.593	11817.38
445.701	11724.38
445.809	11669.38
445.917	11603.38
446.025	11395.38
446.132	11709.38
446.24	11601.38
446.348	11326.38
446.456	11277.38
446.564	11322.38
446.671	11308.38
446.779	11131.38
446.887	11187.38
446.995	11030.38
447.102	11051.38
447.21	11034.38
447.318	10977.38
447.426	10924.38
447.533	11339.38
447.641	12289.38
447.749	10973.38
447.856	10991.38
447.964	10900.38
448.072	10972.38
448.179	10811.38
448.287	10981.38
448.395	10929.38
448.502	10737.38
448.61	11023.38
448.718	10864.38
448.825	11048.38
448.933	10894.38
449.04	10988.38
449.148	11162.38
449.256	11060.38
449.363	11174.38
449.471	11256.38
449.578	11588.38
449.686	11395.38
449.793	11627.38
449.901	11417.38
450.008	11588.38
450.116	11704.38
450.223	11758.38
450.331	11908.38
450.438	12017.38
450.546	12055.38
450.653	12217.38
450.76	12413.38
450.868	12530.38
450.975	12793.38
451.083	12467.38
451.19	12654.38
451.297	12491.38
451.405	12576.38
451.512	12823.38
451.619	12816.38
451.727	13082.38
451.834	12678.38
451.941	12683.38
452.049	12970.38
452.156	13003.38
452.263	13204.38
452.371	13167.38
452.478	13176.38
452.585	13360.38
452.692	13134.38
452.8	13366.38
452.907	13552.38
453.014	13330.38
453.121	13593.38
453.229	13557.38
453.336	13582.38
453.443	13528.38
453.55	13630.38
453.657	13465.38
453.765	13883.38
453.872	13627.38
453.979	13830.38
454.086	13955.38
454.193	14088.38
454.3	13733.38
454.407	13918.38
454.514	14211.38
454.621	13966.38
454.729	13897.38
454.836	14058.38
454.943	14339.38
455.05	14179.38
455.157	14577.38
455.264	14161.38
455.371	14508.38
455.478	14263.38
455.585	14577.38
455.692	14531.38
455.799	14577.38
455.906	14577.38
456.013	14577.38
456.12	14577.38
456.227	14577.38
456.334	14577.38
456.44	14577.38
456.547	14577.38
456.654	14577.38
456.761	14577.38
456.868	14577.38
456.975	14577.38
457.082	14577.38
457.189	14577.38
457.296	14577.38
457.402	14577.38
457.509	14577.38
457.616	14577.38
457.723	14577.38
457.83	14577.38
457.936	14577.38
458.043	14577.38
458.15	14577.38
458.257	14577.38
458.363	14577.38
458.47	14577.38
458.577	14577.38
458.684	14577.38
458.79	14577.38
458.897	14577.38
459.004	14577.38
459.11	14577.38
459.217	14577.38
459.324	14577.38
459.43	14577.38
459.537	14577.38
459.644	14577.38
459.75	14577.38
459.857	14577.38
459.964	14577.38
460.07	14577.38
460.177	14577.38
460.283	14577.38
460.39	14577.38
460.496	14577.38
460.603	14577.38
460.71	14577.38
460.816	14577.38
460.923	14577.38
461.029	14577.38
461.136	14577.38
461.242	14577.38
461.349	14577.38
461.455	14577.38
461.562	14577.38
461.668	14577.38
461.774	14577.38
461.881	14577.38
461.987	14577.38
462.094	14577.38
462.2	14577.38
462.307	14577.38
462.413	14577.38
462.519	14577.38
462.626	14577.38
462.732	14577.38
462.838	14577.38
462.945	14577.38
463.051	14577.38
463.157	14577.38
463.264	14577.38
463.37	14577.38
463.476	14577.38
463.583	14577.38
463.689	14577.38
463.795	14577.38
463.901	14577.38
464.008	14577.38
464.114	14577.38
464.22	14577.38
464.326	14577.38
464.433	14577.38
464.539	14577.38
464.645	14577.38
464.751	14577.38
464.857	14577.38
464.963	14577.38
465.07	14577.38
465.176	14577.38
465.282	14577.38
465.388	14577.38
465.494	14577.38
465.6	14577.38
465.706	14577.38
465.812	14577.38
465.918	14577.38
466.024	14577.38
466.131	14577.38
466.237	14577.38
466.343	14577.38
466.449	14577.38
466.555	14577.38
466.661	14577.38
466.767	14577.38
466.873	14577.38
466.979	14577.38
467.085	14577.38
467.191	14577.38
467.296	14577.38
467.402	14577.38
467.508	14577.38
467.614	14577.38
467.72	14577.38
467.826	14577.38
467.932	14429.38
468.038	14354.38
468.144	14230.38
468.25	14019.38
468.355	14221.38
468.461	14311.38
468.567	14014.38
468.673	13918.38
468.779	14013.38
468.885	13884.38
468.99	13911.38
469.096	14103.38
469.202	14337.38
469.308	14143.38
469.413	14286.38
469.519	14354.38
469.625	14392.38
469.731	14574.38
469.836	14577.38
469.942	14577.38
470.048	14577.38
470.153	14577.38
470.259	14577.38
470.365	14577.38
470.47	14577.38
470.576	14525.38
470.682	14389.38
470.787	14167.38
470.893	13881.38
470.999	13801.38
471.104	13541.38
471.21	13418.38
471.315	13185.38
471.421	13002.38
471.527	13210.38
471.632	12948.38
471.738	12712.38
471.843	12702.38
471.949	12504.38
472.054	12508.38
472.16	12295.38
472.265	12162.38
472.371	12078.38
472.476	12053.38
472.582	12077.38
472.687	11914.38
472.793	11959.38
472.898	11767.38
473.003	11784.38
473.109	11550.38
473.214	11528.38
473.32	11587.38
473.425	11619.38
473.53	11599.38
473.636	11453.38
473.741	11353.38
473.847	11264.38
473.952	11510.38
474.057	11400.38
474.163	11623.38
474.268	11565.38
474.373	11554.38
474.478	11391.38
474.584	11273.38
474.689	11403.38
474.794	11563.38
474.9	11851.38
475.005	11428.38
475.11	11755.38
475.215	11502.38
475.321	11514.38
475.426	11710.38
475.531	11716.38
475.636	11552.38
475.741	11419.38
475.846	11844.38
475.952	11996.38
476.057	11715.38
476.162	11689.38
476.267	11968.38
476.372	12207.38
476.477	11846.38
476.582	12107.38
476.687	12038.38
476.793	12156.38
476.898	12048.38
477.003	12372.38
477.108	12465.38
477.213	12617.38
477.318	12760.38
477.423	12813.38
477.528	13045.38
477.633	13346.38
477.738	13312.38
477.843	13318.38
477.948	13582.38
478.053	13621.38
478.158	13819.38
478.263	13877.38
478.368	14008.38
478.473	14233.38
478.578	14254.38
478.682	14372.38
478.787	14577.38
478.892	14553.38
478.997	14573.38
479.102	14488.38
479.207	14488.38
479.312	14577.38
479.417	14577.38
479.521	14577.38
479.626	14577.38
479.731	14577.38
479.836	14577.38
479.941	14577.38
480.045	14577.38
480.15	14577.38
480.255	14577.38
480.36	14577.38
480.465	14577.38
480.569	14577.38
480.674	14577.38
480.779	14577.38
480.883	14577.38
480.988	14577.38
481.093	14577.38
481.197	14577.38
481.302	14577.38
481.407	14577.38
481.511	14577.38
481.616	14577.38
481.721	14577.38
481.825	14577.38
481.93	14459.38
482.035	14556.38
482.139	14577.38
482.244	14577.38
482.348	14577.38
482.453	14577.38
482.557	14577.38
482.662	14577.38
482.767	14577.38
482.871	14577.38
482.976	14577.38
483.08	14577.38
483.185	14577.38
483.289	14577.38
483.394	14577.38
483.498	14577.38
483.603	14577.38
483.707	14577.38
483.811	14577.38
483.916	14577.38
484.02	14577.38
484.125	14577.38
484.229	14577.38
484.333	14577.38
484.438	14577.38
484.542	14577.38
484.647	14577.38
484.751	14577.38
484.855	14577.38
484.96	14577.38
485.064	14577.38
485.168	14577.38
485.273	14577.38
485.377	14577.38
485.481	14577.38
485.585	14577.38
485.69	14577.38
485.794	14577.38
485.898	14577.38
486.002	14577.38
486.107	14577.38
486.211	14577.38
486.315	14577.38
486.419	14577.38
486.524	14577.38
486.628	14577.38
486.732	14577.38
486.836	14577.38
486.94	14577.38
487.044	14577.38
487.148	14577.38
487.253	14577.38
487.357	14577.38
487.461	14577.38
487.565	14577.38
487.669	14577.38
487.773	14577.38
487.877	14577.38
487.981	14577.38
488.085	14577.38
488.189	14577.38
488.293	14577.38
488.397	14577.38
488.501	14577.38
488.605	14577.38
488.709	14577.38
488.813	14577.38
488.917	14577.38
489.021	14577.38
489.125	14577.38
489.229	14577.38
489.333	14577.38
489.437	14577.38
489.541	14577.38
489.645	14577.38
489.749	14577.38
489.853	14577.38
489.956	14577.38
490.06	14577.38
490.164	14577.38
490.268	14577.38
490.372	14577.38
490.476	14577.38
490.579	14577.38
490.683	14577.38
490.787	14577.38
490.891	14577.38
490.995	14577.38
491.098	14577.38
491.202	14577.38
491.306	14577.38
491.41	14577.38
491.513	14577.38
491.617	14577.38
491.721	14577.38
491.824	14577.38
491.928	14577.38
492.032	14577.38
492.136	14577.38
492.239	14577.38
492.343	14577.38
492.446	14577.38
492.55	14577.38
492.654	14577.38
492.757	14577.38
492.861	14577.38
492.965	14577.38
493.068	14577.38
493.172	14577.38
493.275	14577.38
493.379	14577.38
493.482	14577.38
493.586	14577.38
493.689	14577.38
493.793	14577.38
493.896	14577.38
494	14577.38
494.103	14577.38
494.207	14577.38
494.31	14577.38
494.414	14577.38
494.517	14577.38
494.621	14577.38
494.724	14577.38
494.828	14577.38
494.931	14577.38
495.034	14577.38
495.138	14577.38
495.241	14577.38
495.345	14577.38
495.448	14577.38
495.551	14577.38
495.655	14577.38
495.758	14577.38
495.861	14577.38
495.965	14577.38
496.068	14577.38
496.171	14577.38
496.274	14577.38
496.378	14577.38
496.481	14577.38
496.584	14577.38
496.687	14577.38
496.791	14577.38
496.894	14577.38
496.997	14577.38
497.1	14577.38
497.204	14577.38
497.307	14577.38
497.41	14577.38
497.513	14577.38
497.616	14577.38
497.719	14577.38
497.823	14577.38
497.926	14577.38
498.029	14577.38
498.132	14577.38
498.235	14577.38
498.338	14577.38
498.441	14577.38
498.544	14577.38
498.647	14577.38
498.75	14577.38
498.853	14577.38
498.956	14577.38
499.059	14577.38
499.163	14577.38
499.266	14577.38
499.369	14577.38
499.471	14577.38
499.574	14577.38
499.677	14577.38
499.78	14577.38
499.883	14577.38
499.986	14577.38
500.089	14577.38
500.192	14577.38
500.295	14577.38
500.398	14577.38
500.501	14577.38
500.604	14577.38
500.707	14577.38
500.809	14577.38
500.912	14577.38
501.015	14577.38
501.118	14577.38
501.221	14577.38
501.324	14577.38
501.426	14577.38
501.529	14577.38
501.632	14577.38
501.735	14577.38
501.837	14577.38
501.94	14577.38
502.043	14577.38
502.146	14577.38
502.248	14577.38
502.351	14577.38
502.454	14577.38
502.557	14577.38
502.659	14577.38
502.762	14577.38
502.865	14577.38
502.967	14577.38
503.07	14577.38
503.173	14577.38
503.275	14577.38
503.378	14577.38
503.48	14577.38
503.583	14577.38
503.686	14577.38
503.788	14577.38
503.891	14577.38
503.993	14577.38
504.096	14577.38
504.198	14577.38
504.301	14577.38
504.403	14577.38
504.506	14577.38
504.608	14577.38
504.711	14577.38
504.813	14577.38
504.916	14577.38
505.018	14577.38
505.121	14577.38
505.223	14577.38
505.326	14577.38
505.428	14577.38
505.531	14381.38
505.633	14379.38
505.735	14159.38
505.838	13944.38
505.94	13925.38
506.042	13861.38
506.145	13682.38
506.247	13624.38
506.35	13499.38
506.452	13350.38
506.554	13563.38
506.656	13317.38
506.759	13237.38
506.861	13133.38
506.963	13202.38
507.066	13276.38
507.168	13196.38
507.27	12948.38
507.372	12837.38
507.475	12811.38
507.577	12823.38
507.679	12675.38
507.781	12448.38
507.883	12470.38
507.986	12491.38
508.088	12252.38
508.19	12341.38
508.292	12189.38
508.394	12255.38
508.496	12124.38
508.598	12037.38
508.701	12320.38
508.803	12188.38
508.905	12131.38
509.007	12168.38
509.109	12019.38
509.211	12023.38
509.313	12009.38
509.415	11790.38
509.517	11998.38
509.619	11702.38
509.721	11883.38
509.823	11752.38
509.925	12229.38
510.027	11793.38
510.129	11758.38
510.231	11812.38
510.333	11794.38
510.435	11691.38
510.537	12053.38
510.639	11886.38
510.741	11874.38
510.843	11788.38
510.945	11612.38
511.047	11704.38
511.148	11730.38
511.25	11783.38
511.352	11813.38
511.454	11665.38
511.556	11981.38
511.658	11771.38
511.76	11796.38
511.861	12035.38
511.963	11811.38
512.065	11722.38
512.167	11845.38
512.268	11943.38
512.37	12058.38
512.472	11974.38
512.574	11928.38
512.676	12004.38
512.777	11814.38
512.879	11914.38
512.981	11989.38
513.082	12050.38
513.184	11980.38
513.286	12502.38
513.387	12134.38
513.489	12275.38
513.591	12109.38
513.692	12164.38
513.794	12253.38
513.896	12068.38
513.997	12128.38
514.099	12146.38
514.2	12366.38
514.302	12457.38
514.404	12487.38
514.505	12557.38
514.607	12625.38
514.708	12748.38
514.81	12868.38
514.911	12896.38
515.013	13214.38
515.114	13073.38
515.216	13056.38
515.317	13434.38
515.419	13146.38
515.52	13449.38
515.622	13568.38
515.723	13832.38
515.825	14107.38
515.926	14136.38
516.027	14081.38
516.129	14341.38
516.23	14577.38
516.332	14577.38
516.433	14577.38
516.534	14577.38
516.636	14577.38
516.737	14577.38
516.838	14577.38
516.94	14577.38
517.041	14577.38
517.142	14577.38
517.244	14577.38
517.345	14577.38
517.446	14577.38
517.547	14577.38
517.649	14577.38
517.75	14577.38
517.851	14577.38
517.952	14577.38
518.054	14577.38
518.155	14577.38
518.256	14577.38
518.357	14577.38
518.458	14577.38
518.56	14577.38
518.661	14577.38
518.762	14577.38
518.863	14577.38
518.964	14577.38
519.065	14577.38
519.166	14577.38
519.268	14577.38
519.369	14577.38
519.47	14577.38
519.571	14577.38
519.672	14473.38
519.773	14504.38
519.874	14298.38
519.975	14384.38
520.076	14154.38
520.177	14236.38
520.278	14128.38
520.379	14114.38
520.48	13996.38
520.581	14025.38
520.682	13903.38
520.783	13931.38
520.884	14032.38
520.985	13827.38
521.086	13848.38
521.187	13896.38
521.288	13847.38
521.389	13677.38
521.489	13723.38
521.59	13730.38
521.691	13609.38
521.792	13631.38
521.893	13779.38
521.994	13747.38
522.095	13588.38
522.195	13472.38
522.296	13712.38
522.397	13524.38
522.498	13531.38
522.599	13607.38
522.699	13502.38
522.8	13529.38
522.901	13629.38
523.002	13615.38
523.102	13827.38
523.203	13642.38
523.304	13626.38
523.405	13623.38
523.505	13530.38
523.606	13585.38
523.707	13658.38
523.807	13383.38
523.908	13674.38
524.009	13598.38
524.109	13616.38
524.21	13677.38
524.31	13552.38
524.411	13638.38
524.512	13757.38
524.612	13625.38
524.713	13777.38
524.813	13498.38
524.914	13899.38
525.014	14577.38
525.115	13929.38
525.216	13648.38
525.316	13743.38
525.417	13770.38
525.517	13659.38
525.618	13592.38
525.718	13511.38
525.819	13663.38
525.919	13718.38
526.019	13751.38
526.12	13725.38
526.22	13711.38
526.321	13718.38
526.421	13701.38
526.522	13605.38
526.622	13495.38
526.722	13580.38
526.823	13659.38
526.923	13769.38
527.023	13744.38
527.124	13802.38
527.224	13697.38
527.324	13629.38
527.425	13793.38
527.525	13628.38
527.625	13555.38
527.726	13654.38
527.826	13882.38
527.926	13702.38
528.026	13765.38
528.127	13640.38
528.227	13742.38
528.327	13673.38
528.427	13509.38
528.528	13561.38
528.628	13627.38
528.728	13593.38
528.828	13785.38
528.928	13702.38
529.029	13615.38
529.129	13745.38
529.229	13643.38
529.329	13607.38
529.429	13760.38
529.529	13730.38
529.629	13655.38
529.729	13588.38
529.829	13523.38
529.93	13523.38
530.03	13621.38
530.13	13534.38
530.23	13588.38
530.33	13519.38
530.43	13539.38
530.53	13580.38
530.63	13511.38
530.73	13422.38
530.83	13413.38
530.93	13463.38
531.03	13332.38
531.13	13450.38
531.23	13448.38
531.33	13664.38
531.429	13479.38
531.529	13616.38
531.629	13539.38
531.729	13258.38
531.829	13540.38
531.929	13480.38
532.029	13471.38
532.129	13236.38
532.229	13356.38
532.328	13348.38
532.428	13194.38
532.528	13144.38
532.628	12995.38
532.728	13154.38
532.827	13023.38
532.927	13014.38
533.027	12984.38
533.127	13035.38
533.227	12934.38
533.326	12948.38
533.426	12872.38
533.526	13054.38
533.625	13121.38
533.725	13164.38
533.825	12867.38
533.924	12733.38
534.024	12842.38
534.124	12550.38
534.223	12757.38
534.323	12999.38
534.423	12590.38
534.522	12517.38
534.622	12334.38
534.722	12243.38
534.821	12308.38
534.921	12384.38
535.02	12283.38
535.12	12231.38
535.219	12307.38
535.319	12151.38
535.419	12073.38
535.518	11888.38
535.618	11950.38
535.717	11943.38
535.817	11624.38
535.916	11496.38
536.016	11696.38
536.115	11489.38
536.215	11616.38
536.314	11264.38
536.413	11210.38
536.513	11292.38
536.612	11460.38
536.712	11281.38
536.811	11278.38
536.91	11194.38
537.01	11059.38
537.109	11128.38
537.209	11230.38
537.308	11067.38
537.407	11049.38
537.507	11024.38
537.606	10887.38
537.705	11126.38
537.805	10871.38
537.904	10797.38
538.003	10906.38
538.102	10854.38
538.202	10753.38
538.301	10805.38
538.4	10785.38
538.499	10653.38
538.599	10538.38
538.698	10767.38
538.797	10558.38
538.896	10662.38
538.995	10478.38
539.095	10440.38
539.194	10708.38
539.293	10366.38
539.392	10394.38
539.491	10358.38
539.59	10340.38
539.689	10452.38
539.789	10460.38
539.888	10152.38
539.987	10067.38
540.086	10103.38
540.185	10108.38
540.284	10230.38
540.383	10022.38
540.482	9923.38
540.581	10005.38
540.68	9992.38
540.779	10123.38
540.878	9895.38
540.977	9939.38
541.076	9880.38
541.175	9921.38
541.274	10086.38
541.373	9921.38
541.472	9913.38
541.571	9795.38
541.67	11459.38
541.769	9897.38
541.868	9789.38
541.966	9770.38
542.065	9851.38
542.164	9531.38
542.263	9505.38
542.362	9638.38
542.461	9733.38
542.56	9724.38
542.658	9661.38
542.757	9690.38
542.856	9482.38
542.955	9336.38
543.054	9366.38
543.152	9810.38
543.251	9577.38
543.35	9804.38
543.449	9595.38
543.547	9572.38
543.646	9606.38
543.745	9532.38
543.843	9657.38
543.942	9468.38
544.041	9507.38
544.14	9546.38
544.238	9465.38
544.337	9719.38
544.436	9684.38
544.534	9861.38
544.633	9636.38
544.731	9599.38
544.83	9818.38
544.929	9776.38
545.027	9658.38
545.126	9828.38
545.224	9933.38
545.323	9750.38
545.421	9867.38
545.52	9824.38
545.619	9817.38
545.717	9652.38
545.816	9830.38
545.914	9781.38
546.013	9817.38
546.111	9947.38
546.209	9581.38
546.308	9579.38
546.406	9623.38
546.505	9894.38
546.603	9706.38
546.702	9568.38
546.8	9671.38
546.899	9553.38
546.997	9540.38
547.095	9620.38
547.194	9613.38
547.292	9537.38
547.39	9805.38
547.489	9736.38
547.587	9936.38
547.685	9628.38
547.784	9984.38
547.882	9932.38
547.98	9651.38
548.079	9788.38
548.177	9824.38
548.275	9581.38
548.373	9854.38
548.472	9757.38
548.57	9654.38
548.668	9834.38
548.766	9670.38
548.864	9885.38
548.963	9690.38
549.061	10112.38
549.159	9889.38
549.257	9929.38
549.355	9945.38
549.454	10133.38
549.552	10074.38
549.65	10012.38
549.748	9908.38
549.846	9869.38
549.944	9691.38
550.042	9876.38
550.14	9735.38
550.238	9658.38
550.336	9414.38
550.434	9515.38
550.532	9545.38
550.631	9533.38
550.729	9550.38
550.827	9643.38
550.925	9431.38
551.023	9483.38
551.121	9384.38
551.218	9339.38
551.316	9488.38
551.414	9576.38
551.512	9609.38
551.61	9737.38
551.708	9817.38
551.806	9856.38
551.904	9766.38
552.002	9874.38
552.1	10076.38
552.198	10039.38
552.296	10459.38
552.393	10639.38
552.491	10732.38
552.589	10734.38
552.687	10708.38
552.785	10852.38
552.882	11123.38
552.98	11303.38
553.078	11168.38
553.176	11159.38
553.274	11239.38
553.371	11029.38
553.469	10906.38
553.567	10998.38
553.665	10886.38
553.762	11092.38
553.86	10644.38
553.958	10405.38
554.055	10216.38
554.153	10352.38
554.251	10124.38
554.348	10153.38
554.446	9736.38
554.544	9975.38
554.641	10233.38
554.739	9671.38
554.837	9627.38
554.934	9678.38
555.032	9507.38
555.129	9422.38
555.227	9809.38
555.324	12660.38
555.422	9435.38
555.519	9246.38
555.617	9085.38
555.715	8910.38
555.812	9569.38
555.91	8799.38
556.007	8968.38
556.105	8941.38
556.202	8841.38
556.299	8802.38
556.397	9042.38
556.494	8843.38
556.592	8784.38
556.689	8976.38
556.787	8762.38
556.884	8711.38
556.981	8713.38
557.079	8768.38
557.176	8823.38
557.273	8791.38
557.371	8924.38
557.468	8631.38
557.566	8739.38
557.663	8628.38
557.76	8764.38
557.857	8578.38
557.955	8697.38
558.052	8915.38
558.149	8798.38
558.247	8941.38
558.344	8779.38
558.441	8622.38
558.538	8525.38
558.636	8885.38
558.733	8800.38
558.83	8606.38
558.927	8796.38
559.024	8743.38
559.122	8719.38
559.219	8689.38
559.316	9002.38
559.413	8995.38
559.51	8669.38
559.607	8830.38
559.704	8760.38
559.801	8774.38
559.899	8848.38
559.996	9181.38
560.093	8904.38
560.19	8811.38
560.287	8841.38
560.384	9051.38
560.481	8795.38
560.578	8920.38
560.675	8820.38
560.772	8983.38
560.869	8995.38
560.966	9051.38
561.063	8922.38
561.16	9082.38
561.257	9004.38
561.354	9025.38
561.451	9055.38
561.548	9117.38
561.645	9231.38
561.742	9062.38
561.838	9103.38
561.935	9081.38
562.032	9034.38
562.129	9094.38
562.226	9197.38
562.323	9095.38
562.42	9248.38
562.516	9261.38
562.613	9246.38
562.71	9347.38
562.807	10094.38
562.904	9279.38
563	9478.38
563.097	9549.38
563.194	9553.38
563.291	9496.38
563.387	9675.38
563.484	9561.38
563.581	9691.38
563.678	9773.38
563.774	10166.38
563.871	9899.38
563.968	9994.38
564.064	10043.38
564.161	10111.38
564.258	10226.38
564.354	10513.38
564.451	10339.38
564.548	10597.38
564.644	10693.38
564.741	10587.38
564.837	10716.38
564.934	10974.38
565.031	11112.38
565.127	11240.38
565.224	11522.38
565.32	11920.38
565.417	11937.38
565.513	12241.38
565.61	12429.38
565.706	12896.38
565.803	13020.38
565.899	13388.38
565.996	13796.38
566.092	14313.38
566.189	14577.38
566.285	14577.38
566.382	14577.38
566.478	14577.38
566.574	14577.38
566.671	14577.38
566.767	14577.38
566.864	14577.38
566.96	14577.38
567.056	14577.38
567.153	14577.38
567.249	14577.38
567.345	14577.38
567.442	14577.38
567.538	14577.38
567.634	14577.38
567.731	14577.38
567.827	14577.38
567.923	14577.38
568.019	14577.38
568.116	14577.38
568.212	14577.38
568.308	14577.38
568.404	14577.38
568.501	14577.38
568.597	14577.38
568.693	14577.38
568.789	14577.38
568.885	13498.38
568.982	13151.38
569.078	12652.38
569.174	12433.38
569.27	12027.38
569.366	12064.38
569.462	11629.38
569.558	11434.38
569.655	11368.38
569.751	11032.38
569.847	10977.38
569.943	11007.38
570.039	10855.38
570.135	11228.38
570.231	10652.38
570.327	10932.38
570.423	10786.38
570.519	10822.38
570.615	10916.38
570.711	10979.38
570.807	11095.38
570.903	10932.38
570.999	10779.38
571.095	10687.38
571.191	10480.38
571.287	10376.38
571.383	10145.38
571.479	10024.38
571.574	9796.38
571.67	9587.38
571.766	9739.38
571.862	9345.38
571.958	9260.38
572.054	9251.38
572.15	9131.38
572.246	8972.38
572.341	9093.38
572.437	8899.38
572.533	8966.38
572.629	8739.38
572.725	8708.38
572.82	8725.38
572.916	8736.38
573.012	8577.38
573.108	8720.38
573.203	8511.38
573.299	8466.38
573.395	8459.38
573.49	8352.38
573.586	8299.38
573.682	8296.38
573.778	8485.38
573.873	8274.38
573.969	8244.38
574.065	8201.38
574.16	8159.38
574.256	8221.38
574.351	8347.38
574.447	8144.38
574.543	8224.38
574.638	8378.38
574.734	8297.38
574.829	8395.38
574.925	8105.38
575.02	7949.38
575.116	8039.38
575.212	7883.38
575.307	8007.38
575.403	7640.38
575.498	7709.38
575.594	7750.38
575.689	7772.38
575.784	7681.38
575.88	7583.38
575.975	7520.38
576.071	7486.38
576.166	7401.38
576.262	7565.38
576.357	7445.38
576.452	7696.38
576.548	7643.38
576.643	7411.38
576.739	7398.38
576.834	7311.38
576.929	7430.38
577.025	8019.38
577.12	7316.38
577.215	7121.38
577.311	7105.38
577.406	7200.38
577.501	7212.38
577.597	6907.38
577.692	7164.38
577.787	7139.38
577.882	6959.38
577.978	6921.38
578.073	6910.38
578.168	6704.38
578.263	6764.38
578.358	6817.38
578.454	6707.38
578.549	6708.38
578.644	6682.38
578.739	6719.38
578.834	6558.38
578.929	6577.38
579.025	6612.38
579.12	6708.38
579.215	6745.38
579.31	6736.38
579.405	6505.38
579.5	6530.38
579.595	6415.38
579.69	6338.38
579.785	6247.38
579.88	6324.38
579.975	6336.38
580.07	6220.38
580.165	6252.38
580.26	6374.38
580.355	6211.38
580.45	6160.38
580.545	6188.38
580.64	6047.38
580.735	6133.38
580.83	6000.38
580.925	6004.38
581.02	6052.38
581.115	5912.38
581.21	5939.38
581.305	6006.38
581.4	5910.38
581.495	5926.38
581.589	5967.38
581.684	5868.38
581.779	6052.38
581.874	5819.38
581.969	5946.38
582.064	5802.38
582.158	5790.38
582.253	5772.38
582.348	5750.38
582.443	5823.38
582.537	5703.38
582.632	5952.38
582.727	5798.38
582.822	5664.38
582.916	5662.38
583.011	5633.38
583.106	5660.38
583.201	5547.38
583.295	5638.38
583.39	5510.38
583.485	5546.38
583.579	7705.38
583.674	5657.38
583.769	5780.38
583.863	5461.38
583.958	5560.38
584.052	5372.38
584.147	5256.38
584.242	5344.38
584.336	5408.38
584.431	5633.38
584.525	5422.38
584.62	5548.38
584.714	5467.38
584.809	5447.38
584.903	5476.38
584.998	5381.38
585.092	5327.38
585.187	5397.38
585.281	5193.38
585.376	5248.38
585.47	5380.38
585.565	5254.38
585.659	5141.38
585.754	5349.38
585.848	5296.38
585.942	5197.38
586.037	5229.38
586.131	7774.38
586.226	5204.38
586.32	5255.38
586.414	5130.38
586.509	5246.38
586.603	5240.38
586.697	5203.38
586.792	5151.38
586.886	5081.38
586.98	5256.38
587.075	5139.38
587.169	4967.38
587.263	5391.38
587.357	5105.38
587.452	5034.38
587.546	5155.38
587.64	5151.38
587.734	5205.38
587.829	5180.38
587.923	5185.38
588.017	5106.38
588.111	5236.38
588.205	5430.38
588.3	5387.38
588.394	5462.38
588.488	5713.38
588.582	6099.38
588.676	7018.38
588.77	11891.38
588.864	14577.38
588.958	14577.38
589.052	14577.38
589.147	11017.38
589.241	8259.38
589.335	8526.38
589.429	14577.38
589.523	14577.38
589.617	14577.38
589.711	10217.38
589.805	7375.38
589.899	6215.38
589.993	5590.38
590.087	5435.38
590.181	5271.38
590.275	5208.38
590.369	5074.38
590.462	5016.38
590.556	5049.38
590.65	5036.38
590.744	4927.38
590.838	4890.38
590.932	5104.38
591.026	5036.38
591.12	5205.38
591.214	5143.38
591.307	5201.38
591.401	5004.38
591.495	5193.38
591.589	5116.38
591.683	5068.38
591.777	5228.38
591.87	5663.38
591.964	5333.38
592.058	5270.38
592.152	5466.38
592.245	5475.38
592.339	5611.38
592.433	5732.38
592.527	5781.38
592.62	5760.38
592.714	5886.38
592.808	6083.38
592.901	6041.38
592.995	6016.38
593.089	6317.38
593.182	6181.38
593.276	6035.38
593.37	5949.38
593.463	6111.38
593.557	6071.38
593.65	6134.38
593.744	6195.38
593.837	6256.38
593.931	6169.38
594.025	9683.38
594.118	6309.38
594.212	6025.38
594.305	6015.38
594.399	5892.38
594.492	6120.38
594.586	5642.38
594.679	5449.38
594.773	5303.38
594.866	5399.38
594.96	5289.38
595.053	5067.38
595.146	5088.38
595.24	4991.38
595.333	4834.38
595.427	4794.38
595.52	4746.38
595.614	4930.38
595.707	4622.38
595.8	4558.38
595.894	4505.38
595.987	4338.38
596.08	4311.38
596.174	4698.38
596.267	4344.38
596.36	4454.38
596.454	4370.38
596.547	4223.38
596.64	4060.38
596.733	4015.38
596.827	4099.38
596.92	4093.38
597.013	3987.38
597.106	3926.38
597.2	3907.38
597.293	3876.38
597.386	4078.38
597.479	3940.38
597.572	4022.38
597.666	3891.38
597.759	3853.38
597.852	4053.38
597.945	3865.38
598.038	3908.38
598.131	3723.38
598.224	3751.38
598.317	3943.38
598.411	3875.38
598.504	3779.38
598.597	3844.38
598.69	3732.38
598.783	3741.38
598.876	3779.38
598.969	3709.38
599.062	3577.38
599.155	3790.38
599.248	3712.38
599.341	3732.38
599.434	3631.38
599.527	3723.38
599.62	3584.38
599.713	3551.38
599.806	3742.38
599.899	3784.38
599.991	3610.38
600.084	3939.38
600.177	3535.38
600.27	3476.38
600.363	3791.38
600.456	3600.38
600.549	3591.38
600.642	3546.38
600.734	3572.38
600.827	3559.38
600.92	3666.38
601.013	3543.38
601.106	3608.38
601.199	3477.38
601.291	3525.38
601.384	3522.38
601.477	3705.38
601.57	3674.38
601.662	3463.38
601.755	3398.38
601.848	3470.38
601.94	3468.38
602.033	3607.38
602.126	3319.38
602.219	3447.38
602.311	3545.38
602.404	3338.38
602.497	3460.38
602.589	3346.38
602.682	3413.38
602.774	3408.38
602.867	3450.38
602.96	3375.38
603.052	3327.38
603.145	3438.38
603.237	3387.38
603.33	3411.38
603.422	3486.38
603.515	3285.38
603.608	3376.38
603.7	3343.38
603.793	3285.38
603.885	3332.38
603.978	3292.38
604.07	3438.38
604.163	3292.38
604.255	3312.38
604.347	3384.38
604.44	3227.38
604.532	3341.38
604.625	3306.38
604.717	3230.38
604.81	3352.38
604.902	3270.38
604.994	3159.38
605.087	3179.38
605.179	3250.38
605.271	3287.38
605.364	3189.38
605.456	3293.38
605.548	3322.38
605.641	3204.38
605.733	3190.38
605.825	3297.38
605.918	3181.38
606.01	3366.38
606.102	3540.38
606.194	3245.38
606.287	3352.38
606.379	3149.38
606.471	3166.38
606.563	3182.38
606.655	3251.38
606.748	3307.38
606.84	3114.38
606.932	3272.38
607.024	3165.38
607.116	3144.38
607.208	3175.38
607.301	3181.38
607.393	3195.38
607.485	3133.38
607.577	3202.38
607.669	3305.38
607.761	3222.38
607.853	3525.38
607.945	3136.38
608.037	3053.38
608.129	3133.38
608.221	3072.38
608.313	3060.38
608.405	3116.38
608.497	3124.38
608.589	3034.38
608.681	3157.38
608.773	3124.38
608.865	3110.38
608.957	3116.38
609.049	3090.38
609.141	3229.38
609.233	3086.38
609.325	3028.38
609.417	3144.38
609.509	3199.38
609.601	3215.38
609.693	3284.38
609.784	3042.38
609.876	3065.38
609.968	3121.38
610.06	5596.38
610.152	3320.38
610.244	3348.38
610.335	3035.38
610.427	2967.38
610.519	3046.38
610.611	3163.38
610.702	2943.38
610.794	2968.38
610.886	3074.38
610.978	2943.38
611.069	3361.38
611.161	2923.38
611.253	2877.38
611.344	2746.38
611.436	2613.38
611.528	2895.38
611.62	2625.38
611.711	2637.38
611.803	2650.38
611.894	2605.38
611.986	2547.38
612.078	2587.38
612.169	2539.38
612.261	2424.38
612.352	2424.38
612.444	2397.38
612.536	2413.38
612.627	2372.38
612.719	2343.38
612.81	2192.38
612.902	2167.38
612.993	2240.38
613.085	2167.38
613.176	2067.38
613.268	2118.38
613.359	2102.38
613.451	1997.38
613.542	2055.38
613.634	1968.38
613.725	1925.38
613.816	1986.38
613.908	1919.38
613.999	1785.38
614.091	1738.38
614.182	1731.38
614.273	1743.38
614.365	1606.38
614.456	1582.38
614.547	1614.38
614.639	1483.38
614.73	1516.38
614.821	1644.38
614.913	1416.38
615.004	1332.38
615.095	1377.38
615.187	1284.38
