Data from 35g_HRC06701__58__485.txt Node

Date: Thu Apr 18 02:32:30 CDT 2024
User: Estudiantes 2
Spectrometer: HR+C0670
Trigger mode: 4
Integration Time (sec): 1.000000E0
Scans to average: 1
Electric dark correction enabled: true
Nonlinearity correction enabled: false
Boxcar width: 0
XAxis mode: Wavelengths
Number of Pixels in Spectrum: 2048
>>>>>Begin Spectral Data<<<<<
407.81	-137.31
407.921	-137.31
408.032	-137.31
408.143	-172.31
408.254	-150.31
408.365	69.69
408.476	257.69
408.587	-19.31
408.699	35.69
408.81	-40.31
408.921	-39.31
409.032	-12.31
409.143	8.69
409.254	13.69
409.365	96.69
409.476	-12.31
409.587	24.69
409.698	76.69
409.809	132.69
409.92	-34.31
410.031	-82.31
410.142	74.69
410.253	-12.31
410.364	33.69
410.475	82.69
410.585	625.69
410.696	666.69
410.807	639.69
410.918	637.69
411.029	684.69
411.14	718.69
411.251	691.69
411.362	744.69
411.472	773.69
411.583	711.69
411.694	714.69
411.805	632.69
411.916	698.69
412.026	774.69
412.137	683.69
412.248	720.69
412.359	687.69
412.47	637.69
412.58	626.69
412.691	734.69
412.802	630.69
412.912	669.69
413.023	731.69
413.134	703.69
413.245	798.69
413.355	721.69
413.466	657.69
413.577	638.69
413.687	769.69
413.798	610.69
413.909	680.69
414.019	686.69
414.13	762.69
414.24	638.69
414.351	715.69
414.462	908.69
414.572	709.69
414.683	715.69
414.793	713.69
414.904	1021.69
415.014	697.69
415.125	609.69
415.235	703.69
415.346	792.69
415.456	779.69
415.567	742.69
415.677	718.69
415.788	806.69
415.898	701.69
416.009	637.69
416.119	729.69
416.23	690.69
416.34	638.69
416.45	709.69
416.561	1470.69
416.671	873.69
416.782	623.69
416.892	674.69
417.002	786.69
417.113	758.69
417.223	694.69
417.333	734.69
417.444	704.69
417.554	753.69
417.664	811.69
417.775	685.69
417.885	666.69
417.995	694.69
418.106	911.69
418.216	753.69
418.326	810.69
418.436	768.69
418.547	700.69
418.657	708.69
418.767	902.69
418.877	767.69
418.987	730.69
419.098	833.69
419.208	799.69
419.318	820.69
419.428	875.69
419.538	783.69
419.648	804.69
419.759	832.69
419.869	850.69
419.979	778.69
420.089	785.69
420.199	808.69
420.309	750.69
420.419	846.69
420.529	815.69
420.639	1267.69
420.749	846.69
420.859	922.69
420.969	914.69
421.079	1073.69
421.189	899.69
421.299	912.69
421.409	774.69
421.519	909.69
421.629	951.69
421.739	819.69
421.849	807.69
421.959	839.69
422.069	919.69
422.179	840.69
422.289	814.69
422.399	900.69
422.509	989.69
422.619	4423.69
422.729	1266.69
422.838	827.69
422.948	885.69
423.058	924.69
423.168	901.69
423.278	897.69
423.388	938.69
423.498	988.69
423.607	922.69
423.717	1175.69
423.827	1194.69
423.937	941.69
424.046	1054.69
424.156	1088.69
424.266	977.69
424.376	1246.69
424.485	1178.69
424.595	971.69
424.705	926.69
424.815	981.69
424.924	1434.69
425.034	1041.69
425.144	952.69
425.253	1063.69
425.363	1086.69
425.473	1098.69
425.582	958.69
425.692	998.69
425.801	992.69
425.911	1231.69
426.021	1095.69
426.13	1178.69
426.24	1299.69
426.349	1208.69
426.459	1081.69
426.568	1032.69
426.678	1253.69
426.787	1069.69
426.897	1068.69
427.006	1147.69
427.116	1144.69
427.225	1146.69
427.335	1267.69
427.444	1174.69
427.554	1179.69
427.663	1142.69
427.773	1125.69
427.882	1206.69
427.992	1113.69
428.101	1212.69
428.21	1159.69
428.32	1156.69
428.429	1123.69
428.539	1396.69
428.648	1158.69
428.757	1345.69
428.867	1226.69
428.976	1360.69
429.085	1269.69
429.195	1169.69
429.304	1239.69
429.413	1250.69
429.523	1358.69
429.632	1248.69
429.741	1271.69
429.85	1287.69
429.96	1279.69
430.069	1268.69
430.178	1331.69
430.287	1642.69
430.397	1353.69
430.506	1285.69
430.615	1316.69
430.724	1366.69
430.833	1327.69
430.943	1404.69
431.052	1346.69
431.161	1316.69
431.27	1398.69
431.379	1322.69
431.488	1524.69
431.597	1497.69
431.706	1438.69
431.816	1352.69
431.925	1373.69
432.034	1384.69
432.143	1457.69
432.252	1404.69
432.361	1551.69
432.47	1455.69
432.579	1491.69
432.688	1433.69
432.797	1448.69
432.906	1327.69
433.015	1558.69
433.124	1855.69
433.233	1520.69
433.342	1493.69
433.451	1487.69
433.56	1472.69
433.669	1476.69
433.778	1479.69
433.886	1495.69
433.995	1477.69
434.104	1669.69
434.213	1473.69
434.322	1472.69
434.431	1663.69
434.54	1592.69
434.649	1702.69
434.757	1650.69
434.866	1572.69
434.975	1619.69
435.084	1582.69
435.193	1607.69
435.301	1815.69
435.41	1852.69
435.519	1968.69
435.628	1467.69
435.737	1402.69
435.845	1444.69
435.954	1381.69
436.063	1429.69
436.171	1419.69
436.28	1455.69
436.389	1473.69
436.498	1395.69
436.606	1380.69
436.715	1530.69
436.823	1325.69
436.932	1354.69
437.041	1346.69
437.149	1400.69
437.258	1366.69
437.367	1332.69
437.475	1265.69
437.584	1608.69
437.692	1347.69
437.801	2945.69
437.91	1445.69
438.018	1356.69
438.127	1187.69
438.235	1336.69
438.344	1317.69
438.452	1292.69
438.561	1217.69
438.669	1272.69
438.778	1246.69
438.886	1266.69
438.995	1211.69
439.103	1347.69
439.212	1278.69
439.32	1270.69
439.428	1327.69
439.537	1254.69
439.645	1349.69
439.754	1358.69
439.862	1257.69
439.97	1281.69
440.079	1307.69
440.187	1256.69
440.295	1378.69
440.404	1274.69
440.512	1348.69
440.62	1330.69
440.729	1400.69
440.837	1480.69
440.945	2082.69
441.054	1468.69
441.162	1422.69
441.27	1422.69
441.378	1368.69
441.487	1429.69
441.595	1719.69
441.703	1484.69
441.811	1412.69
441.92	1426.69
442.028	1286.69
442.136	1342.69
442.244	1445.69
442.352	1355.69
442.461	1257.69
442.569	1356.69
442.677	1328.69
442.785	1383.69
442.893	1400.69
443.001	1345.69
443.109	1299.69
443.217	1346.69
443.325	1419.69
443.434	1942.69
443.542	1640.69
443.65	1478.69
443.758	1560.69
443.866	1453.69
443.974	1753.69
444.082	1521.69
444.19	1451.69
444.298	1565.69
444.406	1579.69
444.514	1543.69
444.622	1601.69
444.73	1659.69
444.838	1549.69
444.946	1596.69
445.054	1542.69
445.161	1469.69
445.269	1435.69
445.377	1574.69
445.485	1535.69
445.593	1457.69
445.701	1690.69
445.809	1535.69
445.917	1463.69
446.025	1389.69
446.132	1533.69
446.24	1489.69
446.348	1462.69
446.456	1449.69
446.564	1370.69
446.671	1447.69
446.779	1423.69
446.887	1423.69
446.995	1353.69
447.102	1462.69
447.21	1478.69
447.318	1406.69
447.426	1374.69
447.533	1739.69
447.641	2677.69
447.749	1560.69
447.856	1416.69
447.964	1423.69
448.072	1513.69
448.179	1417.69
448.287	1493.69
448.395	1479.69
448.502	1396.69
448.61	1490.69
448.718	1419.69
448.825	1521.69
448.933	1471.69
449.04	1435.69
449.148	1478.69
449.256	1496.69
449.363	1518.69
449.471	1465.69
449.578	1602.69
449.686	1417.69
449.793	1550.69
449.901	1464.69
450.008	1523.69
450.116	1562.69
450.223	1514.69
450.331	1625.69
450.438	1606.69
450.546	1570.69
450.653	1668.69
450.76	1642.69
450.868	1667.69
450.975	1859.69
451.083	1695.69
451.19	1640.69
451.297	1644.69
451.405	1710.69
451.512	1646.69
451.619	1778.69
451.727	1783.69
451.834	1677.69
451.941	1666.69
452.049	1707.69
452.156	1668.69
452.263	1817.69
452.371	1742.69
452.478	1818.69
452.585	1783.69
452.692	1794.69
452.8	1845.69
452.907	1926.69
453.014	1824.69
453.121	1771.69
453.229	1853.69
453.336	1821.69
453.443	1925.69
453.55	1747.69
453.657	1830.69
453.765	1911.69
453.872	1813.69
453.979	1933.69
454.086	1860.69
454.193	1920.69
454.3	1847.69
454.407	2025.69
454.514	2058.69
454.621	1894.69
454.729	1884.69
454.836	1888.69
454.943	1931.69
455.05	1991.69
455.157	2062.69
455.264	1879.69
455.371	1968.69
455.478	1981.69
455.585	2241.69
455.692	1983.69
455.799	2187.69
455.906	2039.69
456.013	1911.69
456.12	1974.69
456.227	2055.69
456.334	2069.69
456.44	2178.69
456.547	2086.69
456.654	2051.69
456.761	2101.69
456.868	2208.69
456.975	2189.69
457.082	2095.69
457.189	2080.69
457.296	2181.69
457.402	2090.69
457.509	2076.69
457.616	2250.69
457.723	2395.69
457.83	2166.69
457.936	2213.69
458.043	2595.69
458.15	2257.69
458.257	2391.69
458.363	2367.69
458.47	2388.69
458.577	2443.69
458.684	2335.69
458.79	2425.69
458.897	2474.69
459.004	2570.69
459.11	2512.69
459.217	2550.69
459.324	2653.69
459.43	2824.69
459.537	2872.69
459.644	2744.69
459.75	2714.69
459.857	3046.69
459.964	2781.69
460.07	2834.69
460.177	2808.69
460.283	2962.69
460.39	3088.69
460.496	2905.69
460.603	2864.69
460.71	2847.69
460.816	2849.69
460.923	2805.69
461.029	2914.69
461.136	2995.69
461.242	2858.69
461.349	2849.69
461.455	2914.69
461.562	3236.69
461.668	3069.69
461.774	3014.69
461.881	3059.69
461.987	2995.69
462.094	3064.69
462.2	3213.69
462.307	3176.69
462.413	3088.69
462.519	3125.69
462.626	3362.69
462.732	3274.69
462.838	3430.69
462.945	3470.69
463.051	3439.69
463.157	3461.69
463.264	3387.69
463.37	3328.69
463.476	3296.69
463.583	3312.69
463.689	3196.69
463.795	3199.69
463.901	3314.69
464.008	3349.69
464.114	3123.69
464.22	3166.69
464.326	3126.69
464.433	2944.69
464.539	2994.69
464.645	2960.69
464.751	3177.69
464.857	2902.69
464.963	2761.69
465.07	2845.69
465.176	2713.69
465.282	2730.69
465.388	2701.69
465.494	2477.69
465.6	2549.69
465.706	2345.69
465.812	2349.69
465.918	2510.69
466.024	2353.69
466.131	2337.69
466.237	2279.69
466.343	2251.69
466.449	2178.69
466.555	2187.69
466.661	2202.69
466.767	2106.69
466.873	2150.69
466.979	2325.69
467.085	2167.69
467.191	2177.69
467.296	2153.69
467.402	2075.69
467.508	2107.69
467.614	2218.69
467.72	2074.69
467.826	2033.69
467.932	2070.69
468.038	1992.69
468.144	1993.69
468.25	1966.69
468.355	1965.69
468.461	1914.69
468.567	1880.69
468.673	1960.69
468.779	1968.69
468.885	1902.69
468.99	1880.69
469.096	1952.69
469.202	2012.69
469.308	1955.69
469.413	2011.69
469.519	1990.69
469.625	1850.69
469.731	1993.69
469.836	1933.69
469.942	2075.69
470.048	1994.69
470.153	1999.69
470.259	1942.69
470.365	2020.69
470.47	1978.69
470.576	1943.69
470.682	1877.69
470.787	1946.69
470.893	1793.69
470.999	1911.69
471.104	1953.69
471.21	1847.69
471.315	1697.69
471.421	1799.69
471.527	2017.69
471.632	1836.69
471.738	1791.69
471.843	1758.69
471.949	1806.69
472.054	1783.69
472.16	1766.69
472.265	1722.69
472.371	1738.69
472.476	1766.69
472.582	1758.69
472.687	1647.69
472.793	1644.69
472.898	1679.69
473.003	1620.69
473.109	1600.69
473.214	1652.69
473.32	1694.69
473.425	1722.69
473.53	1707.69
473.636	1666.69
473.741	1622.69
473.847	1600.69
473.952	1639.69
474.057	1686.69
474.163	1752.69
474.268	1622.69
474.373	1681.69
474.478	1612.69
474.584	1600.69
474.689	1669.69
474.794	1667.69
474.9	2014.69
475.005	1627.69
475.11	1777.69
475.215	1622.69
475.321	1613.69
475.426	1824.69
475.531	1832.69
475.636	1635.69
475.741	1581.69
475.846	1785.69
475.952	1953.69
476.057	1775.69
476.162	1790.69
476.267	1918.69
476.372	2043.69
476.477	1746.69
476.582	1857.69
476.687	1730.69
476.793	1775.69
476.898	1780.69
477.003	1838.69
477.108	1726.69
477.213	1710.69
477.318	1809.69
477.423	1835.69
477.528	1948.69
477.633	1924.69
477.738	1873.69
477.843	1798.69
477.948	1870.69
478.053	1828.69
478.158	1829.69
478.263	1923.69
478.368	1916.69
478.473	1937.69
478.578	1950.69
478.682	1982.69
478.787	1996.69
478.892	1964.69
478.997	2125.69
479.102	1942.69
479.207	1972.69
479.312	2131.69
479.417	2003.69
479.521	1972.69
479.626	2108.69
479.731	2047.69
479.836	2061.69
479.941	2209.69
480.045	2197.69
480.15	2180.69
480.255	2099.69
480.36	2116.69
480.465	2225.69
480.569	2336.69
480.674	2205.69
480.779	2062.69
480.883	2007.69
480.988	2130.69
481.093	2102.69
481.197	2106.69
481.302	2134.69
481.407	2203.69
481.511	3999.69
481.616	2278.69
481.721	2170.69
481.825	2274.69
481.93	2088.69
482.035	2071.69
482.139	2172.69
482.244	2100.69
482.348	2181.69
482.453	2217.69
482.557	2190.69
482.662	2165.69
482.767	2137.69
482.871	2116.69
482.976	2134.69
483.08	2288.69
483.185	2425.69
483.289	2249.69
483.394	2257.69
483.498	2273.69
483.603	2261.69
483.707	2326.69
483.811	2382.69
483.916	2378.69
484.02	2257.69
484.125	2510.69
484.229	2430.69
484.333	2520.69
484.438	2350.69
484.542	2318.69
484.647	2308.69
484.751	2460.69
484.855	2425.69
484.96	2407.69
485.064	2529.69
485.168	2553.69
485.273	2482.69
485.377	2490.69
485.481	2753.69
485.585	2462.69
485.69	2493.69
485.794	2655.69
485.898	2590.69
486.002	2537.69
486.107	2648.69
486.211	2559.69
486.315	2592.69
486.419	2706.69
486.524	2696.69
486.628	2632.69
486.732	2560.69
486.836	2650.69
486.94	2682.69
487.044	2629.69
487.148	2637.69
487.253	2641.69
487.357	2647.69
487.461	2920.69
487.565	2714.69
487.669	2615.69
487.773	2582.69
487.877	2814.69
487.981	2743.69
488.085	2776.69
488.189	2718.69
488.293	2794.69
488.397	3139.69
488.501	2794.69
488.605	2701.69
488.709	2713.69
488.813	2714.69
488.917	2665.69
489.021	2697.69
489.125	3074.69
489.229	2733.69
489.333	2848.69
489.437	2771.69
489.541	2821.69
489.645	2717.69
489.749	2687.69
489.853	2795.69
489.956	2789.69
490.06	2840.69
490.164	2751.69
490.268	2698.69
490.372	2762.69
490.476	2841.69
490.579	2765.69
490.683	3479.69
490.787	2789.69
490.891	2800.69
490.995	2851.69
491.098	2821.69
491.202	2803.69
491.306	2812.69
491.41	2798.69
491.513	2777.69
491.617	2811.69
491.721	2974.69
491.824	2988.69
491.928	2870.69
492.032	3063.69
492.136	2803.69
492.239	2817.69
492.343	2853.69
492.446	3227.69
492.55	2982.69
492.654	2774.69
492.757	2707.69
492.861	2890.69
492.965	2805.69
493.068	2818.69
493.172	2867.69
493.275	2818.69
493.379	2780.69
493.482	2941.69
493.586	3001.69
493.689	3016.69
493.793	2830.69
493.896	2984.69
494	2894.69
494.103	2840.69
494.207	3129.69
494.31	3213.69
494.414	2869.69
494.517	2806.69
494.621	2833.69
494.724	2829.69
494.828	2809.69
494.931	2862.69
495.034	2786.69
495.138	3009.69
495.241	2801.69
495.345	3743.69
495.448	2974.69
495.551	2790.69
495.655	2905.69
495.758	2778.69
495.861	2711.69
495.965	2860.69
496.068	2921.69
496.171	2898.69
496.274	2870.69
496.378	2851.69
496.481	2902.69
496.584	2933.69
496.687	2924.69
496.791	2925.69
496.894	3024.69
496.997	2995.69
497.1	3015.69
497.204	3002.69
497.307	2911.69
497.41	3080.69
497.513	3265.69
497.616	3096.69
497.719	3097.69
497.823	3065.69
497.926	3180.69
498.029	3283.69
498.132	3301.69
498.235	3430.69
498.338	3501.69
498.441	3616.69
498.544	3543.69
498.647	3640.69
498.75	3805.69
498.853	3920.69
498.956	3913.69
499.059	4164.69
499.163	4104.69
499.266	4261.69
499.369	4405.69
499.471	4453.69
499.574	4773.69
499.677	4801.69
499.78	4863.69
499.883	5065.69
499.986	5296.69
500.089	5275.69
500.192	5401.69
500.295	5420.69
500.398	5517.69
500.501	5367.69
500.604	5242.69
500.707	5048.69
500.809	4946.69
500.912	4921.69
501.015	4747.69
501.118	4479.69
501.221	4449.69
501.324	4178.69
501.426	3989.69
501.529	3835.69
501.632	3805.69
501.735	3567.69
501.837	3566.69
501.94	3465.69
502.043	3417.69
502.146	3205.69
502.248	3343.69
502.351	3230.69
502.454	3185.69
502.557	3063.69
502.659	3117.69
502.762	2926.69
502.865	2891.69
502.967	2857.69
503.07	2733.69
503.173	2761.69
503.275	2748.69
503.378	2676.69
503.48	2637.69
503.583	2688.69
503.686	2747.69
503.788	2961.69
503.891	2603.69
503.993	2894.69
504.096	2577.69
504.198	2645.69
504.301	2593.69
504.403	2569.69
504.506	2564.69
504.608	2504.69
504.711	2497.69
504.813	2495.69
504.916	2428.69
505.018	2324.69
505.121	2258.69
505.223	2349.69
505.326	2317.69
505.428	2357.69
505.531	2218.69
505.633	2276.69
505.735	2171.69
505.838	2154.69
505.94	2192.69
506.042	2117.69
506.145	2061.69
506.247	2142.69
506.35	2067.69
506.452	2139.69
506.554	2192.69
506.656	2166.69
506.759	2025.69
506.861	2082.69
506.963	2075.69
507.066	2045.69
507.168	2085.69
507.27	1984.69
507.372	1973.69
507.475	1943.69
507.577	2043.69
507.679	1963.69
507.781	1852.69
507.883	1941.69
507.986	1950.69
508.088	1929.69
508.19	1951.69
508.292	1976.69
508.394	1848.69
508.496	1847.69
508.598	1881.69
508.701	1922.69
508.803	1869.69
508.905	1825.69
509.007	1930.69
509.109	1992.69
509.211	1932.69
509.313	1911.69
509.415	1819.69
509.517	1866.69
509.619	1875.69
509.721	1888.69
509.823	1846.69
509.925	1997.69
510.027	1915.69
510.129	1869.69
510.231	1903.69
510.333	1828.69
510.435	1824.69
510.537	1898.69
510.639	1943.69
510.741	1808.69
510.843	1889.69
510.945	1852.69
511.047	1946.69
511.148	1852.69
511.25	1846.69
511.352	1895.69
511.454	1753.69
511.556	1855.69
511.658	1836.69
511.76	1906.69
511.861	1967.69
511.963	1813.69
512.065	1824.69
512.167	1782.69
512.268	2046.69
512.37	1909.69
512.472	1866.69
512.574	1914.69
512.676	2006.69
512.777	1803.69
512.879	1850.69
512.981	1861.69
513.082	1892.69
513.184	1887.69
513.286	2429.69
513.387	1905.69
513.489	2019.69
513.591	1990.69
513.692	2012.69
513.794	1953.69
513.896	1829.69
513.997	1924.69
514.099	1842.69
514.2	1946.69
514.302	1980.69
514.404	1878.69
514.505	1841.69
514.607	2054.69
514.708	1952.69
514.81	2047.69
514.911	2120.69
515.013	2145.69
515.114	2101.69
515.216	1976.69
515.317	2113.69
515.419	2003.69
515.52	2101.69
515.622	2146.69
515.723	2084.69
515.825	2237.69
515.926	2161.69
516.027	2155.69
516.129	2119.69
516.23	2216.69
516.332	2349.69
516.433	2290.69
516.534	2336.69
516.636	2300.69
516.737	2219.69
516.838	3472.69
516.94	2561.69
517.041	2380.69
517.142	2585.69
517.244	2678.69
517.345	2592.69
517.446	2533.69
517.547	2630.69
517.649	2521.69
517.75	2549.69
517.851	2562.69
517.952	2828.69
518.054	2523.69
518.155	2578.69
518.256	2503.69
518.357	2644.69
518.458	2366.69
518.56	2391.69
518.661	2365.69
518.762	2443.69
518.863	2558.69
518.964	2456.69
519.065	2257.69
519.166	2276.69
519.268	2246.69
519.369	2583.69
519.47	2258.69
519.571	2346.69
519.672	2200.69
519.773	2186.69
519.874	2290.69
519.975	2285.69
520.076	2217.69
520.177	2367.69
520.278	2238.69
520.379	2219.69
520.48	2061.69
520.581	2174.69
520.682	2116.69
520.783	2139.69
520.884	2290.69
520.985	2222.69
521.086	2165.69
521.187	2283.69
521.288	2208.69
521.389	2179.69
521.489	2138.69
521.59	2149.69
521.691	2173.69
521.792	2146.69
521.893	2336.69
521.994	2310.69
522.095	2218.69
522.195	2304.69
522.296	2318.69
522.397	2204.69
522.498	2218.69
522.599	2076.69
522.699	2142.69
522.8	2203.69
522.901	2279.69
523.002	2222.69
523.102	2368.69
523.203	2254.69
523.304	2360.69
523.405	2124.69
523.505	2248.69
523.606	2208.69
523.707	2187.69
523.807	2230.69
523.908	2165.69
524.009	2214.69
524.109	2285.69
524.21	2187.69
524.31	2276.69
524.411	2358.69
524.512	2374.69
524.612	2242.69
524.713	2388.69
524.813	2215.69
524.914	2430.69
525.014	7340.69
525.115	2569.69
525.216	2151.69
525.316	2198.69
525.417	2214.69
525.517	2246.69
525.618	2117.69
525.718	2106.69
525.819	2166.69
525.919	2208.69
526.019	2220.69
526.12	2402.69
526.22	2145.69
526.321	2168.69
526.421	2101.69
526.522	2176.69
526.622	2176.69
526.722	2140.69
526.823	2262.69
526.923	2146.69
527.023	2272.69
527.124	2222.69
527.224	2276.69
527.324	2189.69
527.425	2253.69
527.525	2106.69
527.625	2196.69
527.726	2212.69
527.826	2254.69
527.926	2159.69
528.026	2222.69
528.127	2169.69
528.227	2198.69
528.327	2272.69
528.427	2253.69
528.528	2208.69
528.628	2278.69
528.728	2239.69
528.828	2250.69
528.928	2242.69
529.029	2182.69
529.129	2187.69
529.229	2211.69
529.329	2179.69
529.429	2320.69
529.529	2305.69
529.629	2253.69
529.729	2230.69
529.829	2373.69
529.93	2216.69
530.03	2257.69
530.13	2186.69
530.23	2166.69
530.33	2257.69
530.43	2172.69
530.53	2154.69
530.63	2231.69
530.73	2186.69
530.83	2066.69
530.93	2084.69
531.03	2196.69
531.13	2186.69
531.23	2040.69
531.33	2149.69
531.429	2221.69
531.529	2343.69
531.629	2160.69
531.729	1985.69
531.829	2005.69
531.929	2090.69
532.029	2197.69
532.129	2109.69
532.229	2171.69
532.328	2167.69
532.428	2117.69
532.528	2064.69
532.628	2036.69
532.728	2111.69
532.827	1966.69
532.927	2160.69
533.027	2120.69
533.127	2254.69
533.227	2098.69
533.326	2118.69
533.426	1993.69
533.526	2156.69
533.625	2218.69
533.725	2341.69
533.825	2073.69
533.924	1968.69
534.024	1926.69
534.124	1980.69
534.223	2028.69
534.323	2433.69
534.423	2008.69
534.522	2031.69
534.622	1949.69
534.722	1937.69
534.821	2006.69
534.921	1959.69
535.02	1834.69
535.12	1991.69
535.219	2037.69
535.319	2022.69
535.419	2054.69
535.518	1882.69
535.618	1925.69
535.717	1981.69
535.817	1833.69
535.916	1863.69
536.016	1911.69
536.115	1862.69
536.215	1928.69
536.314	1792.69
536.413	1764.69
536.513	1850.69
536.612	1805.69
536.712	1677.69
536.811	1816.69
536.91	1765.69
537.01	1768.69
537.109	1787.69
537.209	1818.69
537.308	1775.69
537.407	1738.69
537.507	1841.69
537.606	1734.69
537.705	1865.69
537.805	1817.69
537.904	1689.69
538.003	1765.69
538.102	1843.69
538.202	1816.69
538.301	1826.69
538.4	1806.69
538.499	1756.69
538.599	1738.69
538.698	1953.69
538.797	1769.69
538.896	1835.69
538.995	1709.69
539.095	1752.69
539.194	1921.69
539.293	1697.69
539.392	1751.69
539.491	1733.69
539.59	1678.69
539.689	1816.69
539.789	1847.69
539.888	1587.69
539.987	1565.69
540.086	1742.69
540.185	1617.69
540.284	1700.69
540.383	1728.69
540.482	1613.69
540.581	1662.69
540.68	1678.69
540.779	1665.69
540.878	1637.69
540.977	1690.69
541.076	1685.69
541.175	1675.69
541.274	1907.69
541.373	1815.69
541.472	1685.69
541.571	1580.69
541.67	3005.69
541.769	1784.69
541.868	1645.69
541.966	1738.69
542.065	1624.69
542.164	1640.69
542.263	1564.69
542.362	1702.69
542.461	1686.69
542.56	1626.69
542.658	1682.69
542.757	1589.69
542.856	1506.69
542.955	1630.69
543.054	1584.69
543.152	1734.69
543.251	1653.69
543.35	1766.69
543.449	1654.69
543.547	1576.69
543.646	1602.69
543.745	1599.69
543.843	1656.69
543.942	1679.69
544.041	1532.69
544.14	1640.69
544.238	1629.69
544.337	1850.69
544.436	1663.69
544.534	1749.69
544.633	1661.69
544.731	1585.69
544.83	1675.69
544.929	1677.69
545.027	1537.69
545.126	1577.69
545.224	1688.69
545.323	1522.69
545.421	1578.69
545.52	1645.69
545.619	1648.69
545.717	1498.69
545.816	1702.69
545.914	1679.69
546.013	1860.69
546.111	1791.69
546.209	1656.69
546.308	1561.69
546.406	1578.69
546.505	1822.69
546.603	1633.69
546.702	1540.69
546.8	1607.69
546.899	1599.69
546.997	1660.69
547.095	1681.69
547.194	1703.69
547.292	1666.69
547.39	1739.69
547.489	1674.69
547.587	1851.69
547.685	1611.69
547.784	1893.69
547.882	1685.69
547.98	1536.69
548.079	1708.69
548.177	1616.69
548.275	1468.69
548.373	1769.69
548.472	1645.69
548.57	1585.69
548.668	1724.69
548.766	1608.69
548.864	1730.69
548.963	1654.69
549.061	1792.69
549.159	1607.69
549.257	1706.69
549.355	1607.69
549.454	1638.69
549.552	1666.69
549.65	1637.69
549.748	1596.69
549.846	1615.69
549.944	1645.69
550.042	1645.69
550.14	1569.69
550.238	1601.69
550.336	1627.69
550.434	1528.69
550.532	1543.69
550.631	1741.69
550.729	1665.69
550.827	1654.69
550.925	1625.69
551.023	1641.69
551.121	1507.69
551.218	1563.69
551.316	1560.69
551.414	1551.69
551.512	1532.69
551.61	1684.69
551.708	1687.69
551.806	1663.69
551.904	1605.69
552.002	1644.69
552.1	1613.69
552.198	1597.69
552.296	1831.69
552.393	1738.69
552.491	1861.69
552.589	1833.69
552.687	1822.69
552.785	1776.69
552.882	1980.69
552.98	1934.69
553.078	1813.69
553.176	1863.69
553.274	1669.69
553.371	1725.69
553.469	1754.69
553.567	1676.69
553.665	1660.69
553.762	2115.69
553.86	1926.69
553.958	1739.69
554.055	1773.69
554.153	1815.69
554.251	1695.69
554.348	1650.69
554.446	1624.69
554.544	1640.69
554.641	1982.69
554.739	1665.69
554.837	1619.69
554.934	1604.69
555.032	1609.69
555.129	1590.69
555.227	1878.69
555.324	6198.69
555.422	2056.69
555.519	1611.69
555.617	1583.69
555.715	1483.69
555.812	1914.69
555.91	1539.69
556.007	1611.69
556.105	1569.69
556.202	1508.69
556.299	1489.69
556.397	1544.69
556.494	1476.69
556.592	1478.69
556.689	1594.69
556.787	1473.69
556.884	1461.69
556.981	1472.69
557.079	1471.69
557.176	1466.69
557.273	1525.69
557.371	1617.69
557.468	1491.69
557.566	1475.69
557.663	1547.69
557.76	1486.69
557.857	1467.69
557.955	1590.69
558.052	1598.69
558.149	1643.69
558.247	1734.69
558.344	1517.69
558.441	1478.69
558.538	1474.69
558.636	1515.69
558.733	1583.69
558.83	1525.69
558.927	1564.69
559.024	1516.69
559.122	1480.69
559.219	1563.69
559.316	1644.69
559.413	1651.69
559.51	1469.69
559.607	1541.69
559.704	1555.69
559.801	1590.69
559.899	1531.69
559.996	1811.69
560.093	1527.69
560.19	1549.69
560.287	1535.69
560.384	1708.69
560.481	1593.69
560.578	1545.69
560.675	1494.69
560.772	1629.69
560.869	1554.69
560.966	1624.69
561.063	1584.69
561.16	1681.69
561.257	1618.69
561.354	1546.69
561.451	1566.69
561.548	1670.69
561.645	1818.69
561.742	1559.69
561.838	1576.69
561.935	1593.69
562.032	1606.69
562.129	1585.69
562.226	1595.69
562.323	1570.69
562.42	1660.69
562.516	1555.69
562.613	1578.69
562.71	1650.69
562.807	2412.69
562.904	1642.69
563	1642.69
563.097	1642.69
563.194	1634.69
563.291	1568.69
563.387	1726.69
563.484	1651.69
563.581	1678.69
563.678	1636.69
563.774	2084.69
563.871	1681.69
563.968	1749.69
564.064	1707.69
564.161	1687.69
564.258	1767.69
564.354	1853.69
564.451	1858.69
564.548	1772.69
564.644	1810.69
564.741	1739.69
564.837	1709.69
564.934	1824.69
565.031	1799.69
565.127	1854.69
565.224	1911.69
565.32	2054.69
565.417	1922.69
565.513	2012.69
565.61	2033.69
565.706	2061.69
565.803	2066.69
565.899	2105.69
565.996	2174.69
566.092	2172.69
566.189	2142.69
566.285	2199.69
566.382	2312.69
566.478	2444.69
566.574	2440.69
566.671	2326.69
566.767	2416.69
566.864	2419.69
566.96	2490.69
567.056	2414.69
567.153	2821.69
567.249	2596.69
567.345	2640.69
567.442	2787.69
567.538	2690.69
567.634	2657.69
567.731	2672.69
567.827	2655.69
567.923	2709.69
568.019	2514.69
568.116	2458.69
568.212	2392.69
568.308	2467.69
568.404	2378.69
568.501	2197.69
568.597	2361.69
568.693	2279.69
568.789	2873.69
568.885	2166.69
568.982	2207.69
569.078	2020.69
569.174	2041.69
569.27	1911.69
569.366	1991.69
569.462	1848.69
569.558	1817.69
569.655	1901.69
569.751	1739.69
569.847	1752.69
569.943	1784.69
570.039	1671.69
570.135	2249.69
570.231	1747.69
570.327	1900.69
570.423	1851.69
570.519	1811.69
570.615	1700.69
570.711	1744.69
570.807	1771.69
570.903	1648.69
570.999	1707.69
571.095	1715.69
571.191	1684.69
571.287	1674.69
571.383	1734.69
571.479	1665.69
571.574	1689.69
571.67	1577.69
571.766	1877.69
571.862	1583.69
571.958	1511.69
572.054	1680.69
572.15	1540.69
572.246	1436.69
572.341	1611.69
572.437	1466.69
572.533	1529.69
572.629	1530.69
572.725	1482.69
572.82	1457.69
572.916	1583.69
573.012	1459.69
573.108	1595.69
573.203	1421.69
573.299	1358.69
573.395	1474.69
573.49	1343.69
573.586	1397.69
573.682	1478.69
573.778	1579.69
573.873	1338.69
573.969	1383.69
574.065	1355.69
574.16	1440.69
574.256	1407.69
574.351	1467.69
574.447	1324.69
574.543	1376.69
574.638	1513.69
574.734	1400.69
574.829	1607.69
574.925	1448.69
575.02	1340.69
575.116	1325.69
575.212	1362.69
575.307	1463.69
575.403	1317.69
575.498	1344.69
575.594	1313.69
575.689	1371.69
575.784	1328.69
575.88	1386.69
575.975	1371.69
576.071	1240.69
576.166	1247.69
576.262	1241.69
576.357	1234.69
576.452	1474.69
576.548	1264.69
576.643	1181.69
576.739	1355.69
576.834	1302.69
576.929	1246.69
577.025	1482.69
577.12	1230.69
577.215	1164.69
577.311	1216.69
577.406	1354.69
577.501	1345.69
577.597	1104.69
577.692	1362.69
577.787	1274.69
577.882	1197.69
577.978	1298.69
578.073	1201.69
578.168	1094.69
578.263	1120.69
578.358	1191.69
578.454	1082.69
578.549	1104.69
578.644	1152.69
578.739	1150.69
578.834	1073.69
578.929	1162.69
579.025	1082.69
579.12	1184.69
579.215	1410.69
579.31	1357.69
579.405	1071.69
579.5	1170.69
579.595	1139.69
579.69	1004.69
579.785	1093.69
579.88	1119.69
579.975	1098.69
580.07	1068.69
580.165	1162.69
580.26	1218.69
580.355	1078.69
580.45	1067.69
580.545	1064.69
580.64	1054.69
580.735	1157.69
580.83	1109.69
580.925	953.69
581.02	1016.69
581.115	1057.69
581.21	942.69
581.305	1008.69
581.4	1049.69
581.495	970.69
581.589	976.69
581.684	954.69
581.779	1067.69
581.874	1024.69
581.969	1039.69
582.064	941.69
582.158	975.69
582.253	944.69
582.348	1054.69
582.443	1030.69
582.537	968.69
582.632	1213.69
582.727	1004.69
582.822	954.69
582.916	971.69
583.011	954.69
583.106	935.69
583.201	936.69
583.295	1029.69
583.39	911.69
583.485	901.69
583.579	2943.69
583.674	1177.69
583.769	1164.69
583.863	1001.69
583.958	937.69
584.052	851.69
584.147	913.69
584.242	855.69
584.336	917.69
584.431	1120.69
584.525	897.69
584.62	1113.69
584.714	951.69
584.809	1012.69
584.903	944.69
584.998	930.69
585.092	905.69
585.187	857.69
585.281	857.69
585.376	920.69
585.47	946.69
585.565	875.69
585.659	774.69
585.754	903.69
585.848	942.69
585.942	876.69
586.037	878.69
586.131	3259.69
586.226	1055.69
586.32	978.69
586.414	773.69
586.509	946.69
586.603	922.69
586.697	877.69
586.792	821.69
586.886	792.69
586.98	1000.69
587.075	849.69
587.169	855.69
587.263	1041.69
587.357	874.69
587.452	825.69
587.546	1009.69
587.64	770.69
587.734	860.69
587.829	947.69
587.923	860.69
588.017	847.69
588.111	896.69
588.205	1026.69
588.3	864.69
588.394	901.69
588.488	1005.69
588.582	1194.69
588.676	1456.69
588.77	2281.69
588.864	3755.69
588.958	3663.69
589.052	2878.69
589.147	2213.69
589.241	1748.69
589.335	1747.69
589.429	2783.69
589.523	3128.69
589.617	2622.69
589.711	2014.69
589.805	1427.69
589.899	1202.69
589.993	1000.69
590.087	870.69
590.181	826.69
590.275	838.69
590.369	855.69
590.462	795.69
590.556	759.69
590.65	803.69
590.744	786.69
590.838	746.69
590.932	840.69
591.026	886.69
591.12	959.69
591.214	861.69
591.307	821.69
591.401	760.69
591.495	906.69
591.589	804.69
591.683	818.69
591.777	897.69
591.87	1249.69
591.964	833.69
592.058	772.69
592.152	947.69
592.245	827.69
592.339	921.69
592.433	1034.69
592.527	896.69
592.62	779.69
592.714	864.69
592.808	993.69
592.901	893.69
592.995	832.69
593.089	1178.69
593.182	943.69
593.276	880.69
593.37	882.69
593.463	788.69
593.557	868.69
593.65	877.69
593.744	900.69
593.837	953.69
593.931	849.69
594.025	4958.69
594.118	1280.69
594.212	809.69
594.305	874.69
594.399	890.69
594.492	1234.69
594.586	859.69
594.679	783.69
594.773	814.69
594.866	904.69
594.96	778.69
595.053	731.69
595.146	751.69
595.24	785.69
595.333	770.69
595.427	686.69
595.52	763.69
595.614	914.69
595.707	771.69
595.8	770.69
595.894	753.69
595.987	690.69
596.08	686.69
596.174	1106.69
596.267	834.69
596.36	818.69
596.454	929.69
596.547	808.69
596.64	681.69
596.733	737.69
596.827	796.69
596.92	672.69
597.013	660.69
597.106	602.69
597.2	582.69
597.293	651.69
597.386	855.69
597.479	682.69
597.572	701.69
597.666	698.69
597.759	669.69
597.852	741.69
597.945	616.69
598.038	651.69
598.131	678.69
598.224	715.69
598.317	759.69
598.411	661.69
598.504	639.69
598.597	753.69
598.69	624.69
598.783	619.69
598.876	700.69
598.969	675.69
599.062	606.69
599.155	705.69
599.248	597.69
599.341	669.69
599.434	654.69
599.527	662.69
599.62	577.69
599.713	599.69
599.806	687.69
599.899	824.69
599.991	633.69
600.084	880.69
600.177	595.69
600.27	574.69
600.363	811.69
600.456	573.69
600.549	655.69
600.642	599.69
600.734	569.69
600.827	602.69
600.92	736.69
601.013	619.69
601.106	678.69
601.199	637.69
601.291	669.69
601.384	608.69
601.477	809.69
601.57	746.69
601.662	568.69
601.755	648.69
601.848	645.69
601.94	584.69
602.033	735.69
602.126	656.69
602.219	567.69
602.311	688.69
602.404	609.69
602.497	643.69
602.589	581.69
602.682	645.69
602.774	686.69
602.867	559.69
602.96	587.69
603.052	630.69
603.145	563.69
603.237	575.69
603.33	596.69
603.422	744.69
603.515	528.69
603.608	629.69
603.7	659.69
603.793	608.69
603.885	641.69
603.978	607.69
604.07	572.69
604.163	564.69
604.255	723.69
604.347	577.69
604.44	562.69
604.532	679.69
604.625	621.69
604.717	592.69
604.81	619.69
604.902	595.69
604.994	516.69
605.087	540.69
605.179	621.69
605.271	603.69
605.364	528.69
605.456	642.69
605.548	550.69
605.641	558.69
605.733	568.69
605.825	613.69
605.918	529.69
606.01	738.69
606.102	1064.69
606.194	606.69
606.287	720.69
606.379	559.69
606.471	572.69
606.563	633.69
606.655	732.69
606.748	657.69
606.84	570.69
606.932	648.69
607.024	559.69
607.116	522.69
607.208	598.69
607.301	637.69
607.393	533.69
607.485	583.69
607.577	644.69
607.669	638.69
607.761	622.69
607.853	866.69
607.945	565.69
608.037	488.69
608.129	586.69
608.221	543.69
608.313	525.69
608.405	640.69
608.497	616.69
608.589	509.69
608.681	568.69
608.773	662.69
608.865	594.69
608.957	591.69
609.049	591.69
609.141	662.69
609.233	553.69
609.325	516.69
609.417	557.69
609.509	630.69
609.601	723.69
609.693	718.69
609.784	530.69
609.876	599.69
609.968	637.69
610.06	3239.69
610.152	864.69
610.244	928.69
610.335	557.69
610.427	570.69
610.519	611.69
610.611	635.69
610.702	510.69
610.794	565.69
610.886	678.69
610.978	582.69
611.069	1095.69
611.161	634.69
611.253	620.69
611.344	545.69
611.436	514.69
611.528	586.69
611.62	444.69
611.711	546.69
611.803	446.69
611.894	481.69
611.986	480.69
612.078	517.69
612.169	471.69
612.261	472.69
612.352	494.69
612.444	399.69
612.536	545.69
612.627	507.69
612.719	373.69
612.81	331.69
612.902	360.69
612.993	434.69
613.085	414.69
613.176	349.69
613.268	449.69
613.359	347.69
613.451	365.69
613.542	437.69
613.634	303.69
613.725	348.69
613.816	484.69
613.908	300.69
613.999	321.69
614.091	286.69
614.182	252.69
614.273	316.69
614.365	246.69
614.456	254.69
614.547	251.69
614.639	220.69
614.73	273.69
614.821	330.69
614.913	188.69
615.004	191.69
615.095	183.69
615.187	142.69
