Data from 35g_HRC06701__53__480.txt Node

Date: Thu Apr 18 02:32:25 CDT 2024
User: Estudiantes 2
Spectrometer: HR+C0670
Trigger mode: 4
Integration Time (sec): 1.000000E0
Scans to average: 1
Electric dark correction enabled: true
Nonlinearity correction enabled: false
Boxcar width: 0
XAxis mode: Wavelengths
Number of Pixels in Spectrum: 2048
>>>>>Begin Spectral Data<<<<<
407.81	-85.75
407.921	-85.75
408.032	-85.75
408.143	-152.75
408.254	-128.75
408.365	40.25
408.476	287.25
408.587	-19.75
408.699	11.25
408.81	-55.75
408.921	-61.75
409.032	-20.75
409.143	55.25
409.254	-26.75
409.365	95.25
409.476	7.25
409.587	-4.75
409.698	60.25
409.809	116.25
409.92	-19.75
410.031	-28.75
410.142	100.25
410.253	-3.75
410.364	19.25
410.475	955.25
410.585	4489.25
410.696	4723.25
410.807	4572.25
410.918	4649.25
411.029	4769.25
411.14	4704.25
411.251	4814.25
411.362	4809.25
411.472	5011.25
411.583	4843.25
411.694	4987.25
411.805	4934.25
411.916	4968.25
412.026	4952.25
412.137	4928.25
412.248	4868.25
412.359	4899.25
412.47	4620.25
412.58	4625.25
412.691	4818.25
412.802	4712.25
412.912	4735.25
413.023	4860.25
413.134	4743.25
413.245	4811.25
413.355	4804.25
413.466	4710.25
413.577	4714.25
413.687	4817.25
413.798	4618.25
413.909	4747.25
414.019	4755.25
414.13	4843.25
414.24	4824.25
414.351	4955.25
414.462	5161.25
414.572	4866.25
414.683	4900.25
414.793	4837.25
414.904	5251.25
415.014	4803.25
415.125	4787.25
415.235	4945.25
415.346	5023.25
415.456	4967.25
415.567	4821.25
415.677	4696.25
415.788	4801.25
415.898	4852.25
416.009	4730.25
416.119	4771.25
416.23	4839.25
416.34	4714.25
416.45	4919.25
416.561	5420.25
416.671	4959.25
416.782	4739.25
416.892	4895.25
417.002	4988.25
417.113	5022.25
417.223	4887.25
417.333	4996.25
417.444	5073.25
417.554	5107.25
417.664	5244.25
417.775	5032.25
417.885	5179.25
417.995	5191.25
418.106	5474.25
418.216	5274.25
418.326	5520.25
418.436	5511.25
418.547	5491.25
418.657	5595.25
418.767	5920.25
418.877	5668.25
418.987	5774.25
419.098	5792.25
419.208	5679.25
419.318	5690.25
419.428	5698.25
419.538	5639.25
419.648	5686.25
419.759	5676.25
419.869	5794.25
419.979	5636.25
420.089	5597.25
420.199	5652.25
420.309	5654.25
420.419	5726.25
420.529	5692.25
420.639	5756.25
420.749	5696.25
420.859	5867.25
420.969	5998.25
421.079	6145.25
421.189	5823.25
421.299	5815.25
421.409	5874.25
421.519	5925.25
421.629	6047.25
421.739	5947.25
421.849	5966.25
421.959	6084.25
422.069	6031.25
422.179	6164.25
422.289	6317.25
422.399	6483.25
422.509	6481.25
422.619	8724.25
422.729	6763.25
422.838	6418.25
422.948	6719.25
423.058	6671.25
423.168	6833.25
423.278	6756.25
423.388	6857.25
423.498	7208.25
423.607	6927.25
423.717	7394.25
423.827	7287.25
423.937	7042.25
424.046	7160.25
424.156	7310.25
424.266	7131.25
424.376	7495.25
424.485	7426.25
424.595	7177.25
424.705	7238.25
424.815	7257.25
424.924	7880.25
425.034	7332.25
425.144	7309.25
425.253	7323.25
425.363	7468.25
425.473	7523.25
425.582	7225.25
425.692	7358.25
425.801	7254.25
425.911	7567.25
426.021	7523.25
426.13	7553.25
426.24	7602.25
426.349	7663.25
426.459	7632.25
426.568	7478.25
426.678	7690.25
426.787	7672.25
426.897	7523.25
427.006	7776.25
427.116	7692.25
427.225	7679.25
427.335	7868.25
427.444	7766.25
427.554	7832.25
427.663	7927.25
427.773	7847.25
427.882	7942.25
427.992	7903.25
428.101	7984.25
428.21	7964.25
428.32	8198.25
428.429	8072.25
428.539	8334.25
428.648	8181.25
428.757	8157.25
428.867	8348.25
428.976	8533.25
429.085	8348.25
429.195	8425.25
429.304	8476.25
429.413	8420.25
429.523	8625.25
429.632	8456.25
429.741	8475.25
429.85	8498.25
429.96	8664.25
430.069	8600.25
430.178	8808.25
430.287	9011.25
430.397	8808.25
430.506	8927.25
430.615	8959.25
430.724	8992.25
430.833	8808.25
430.943	8985.25
431.052	9105.25
431.161	9181.25
431.27	9349.25
431.379	9456.25
431.488	10000.25
431.597	9748.25
431.706	9911.25
431.816	9878.25
431.925	9764.25
432.034	9729.25
432.143	9710.25
432.252	9627.25
432.361	9841.25
432.47	9611.25
432.579	9588.25
432.688	9614.25
432.797	9704.25
432.906	9611.25
433.015	9824.25
433.124	10102.25
433.233	9864.25
433.342	9820.25
433.451	9932.25
433.56	9992.25
433.669	9918.25
433.778	10023.25
433.886	10295.25
433.995	10169.25
434.104	10551.25
434.213	10527.25
434.322	10547.25
434.431	11088.25
434.54	11443.25
434.649	11608.25
434.757	11589.25
434.866	11417.25
434.975	11086.25
435.084	10906.25
435.193	10600.25
435.301	10529.25
435.41	10509.25
435.519	10523.25
435.628	9711.25
435.737	9584.25
435.845	9483.25
435.954	9338.25
436.063	9335.25
436.171	9384.25
436.28	9442.25
436.389	9472.25
436.498	9287.25
436.606	9380.25
436.715	9585.25
436.823	9174.25
436.932	8943.25
437.041	8807.25
437.149	9008.25
437.258	8870.25
437.367	8654.25
437.475	8655.25
437.584	8979.25
437.692	8668.25
437.801	10309.25
437.91	8678.25
438.018	8582.25
438.127	8548.25
438.235	8570.25
438.344	8569.25
438.452	8499.25
438.561	8490.25
438.669	8503.25
438.778	8313.25
438.886	8491.25
438.995	8319.25
439.103	8516.25
439.212	8545.25
439.32	8601.25
439.428	8584.25
439.537	8464.25
439.645	8609.25
439.754	8750.25
439.862	8506.25
439.97	8625.25
440.079	8772.25
440.187	8730.25
440.295	8963.25
440.404	8869.25
440.512	8988.25
440.62	9027.25
440.729	9189.25
440.837	9249.25
440.945	10062.25
441.054	9669.25
441.162	9687.25
441.27	10056.25
441.378	10276.25
441.487	10184.25
441.595	10693.25
441.703	10032.25
441.811	9805.25
441.92	9827.25
442.028	9595.25
442.136	9666.25
442.244	9664.25
442.352	9658.25
442.461	9426.25
442.569	9446.25
442.677	9541.25
442.785	9494.25
442.893	9464.25
443.001	9527.25
443.109	9426.25
443.217	9594.25
443.325	9659.25
443.434	10423.25
443.542	10111.25
443.65	9805.25
443.758	10117.25
443.866	10208.25
443.974	10771.25
444.082	10715.25
444.19	10980.25
444.298	11264.25
444.406	11740.25
444.514	12195.25
444.622	12054.25
444.73	11918.25
444.838	11516.25
444.946	11306.25
445.054	10840.25
445.161	10627.25
445.269	10291.25
445.377	10200.25
445.485	9995.25
445.593	9855.25
445.701	9880.25
445.809	9715.25
445.917	9594.25
446.025	9361.25
446.132	9778.25
446.24	9619.25
446.348	9386.25
446.456	9389.25
446.564	9408.25
446.671	9288.25
446.779	9361.25
446.887	9266.25
446.995	9041.25
447.102	9216.25
447.21	9069.25
447.318	9052.25
447.426	8946.25
447.533	9409.25
447.641	10452.25
447.749	9012.25
447.856	9187.25
447.964	9046.25
448.072	9058.25
448.179	8992.25
448.287	8999.25
448.395	9062.25
448.502	9047.25
448.61	9072.25
448.718	9114.25
448.825	9105.25
448.933	9142.25
449.04	9083.25
449.148	9188.25
449.256	9180.25
449.363	9281.25
449.471	9325.25
449.578	9432.25
449.686	9320.25
449.793	9641.25
449.901	9577.25
450.008	9712.25
450.116	9714.25
450.223	9738.25
450.331	9959.25
450.438	9986.25
450.546	10139.25
450.653	10279.25
450.76	10352.25
450.868	10372.25
450.975	10751.25
451.083	10467.25
451.19	10635.25
451.297	10529.25
451.405	10507.25
451.512	10578.25
451.619	10669.25
451.727	10766.25
451.834	10552.25
451.941	10686.25
452.049	10797.25
452.156	10757.25
452.263	10953.25
452.371	11033.25
452.478	10987.25
452.585	11105.25
452.692	10814.25
452.8	10994.25
452.907	11265.25
453.014	11224.25
453.121	11268.25
453.229	11233.25
453.336	11228.25
453.443	11160.25
453.55	11365.25
453.657	11083.25
453.765	11595.25
453.872	11334.25
453.979	11468.25
454.086	11617.25
454.193	11686.25
454.3	11365.25
454.407	11605.25
454.514	11894.25
454.621	11498.25
454.729	11613.25
454.836	11784.25
454.943	11958.25
455.05	11754.25
455.157	11995.25
455.264	11793.25
455.371	12048.25
455.478	12022.25
455.585	12542.25
455.692	12234.25
455.799	12339.25
455.906	12179.25
456.013	12284.25
456.12	12241.25
456.227	12351.25
456.334	12526.25
456.44	12589.25
456.547	12728.25
456.654	12547.25
456.761	12653.25
456.868	12744.25
456.975	12885.25
457.082	12978.25
457.189	12705.25
457.296	12969.25
457.402	13071.25
457.509	12972.25
457.616	13341.25
457.723	13574.25
457.83	13435.25
457.936	13860.25
458.043	14135.25
458.15	13740.25
458.257	14097.25
458.363	14367.25
458.47	14580.25
458.577	14580.25
458.684	14580.25
458.79	14580.25
458.897	14580.25
459.004	14580.25
459.11	14580.25
459.217	14580.25
459.324	14580.25
459.43	14580.25
459.537	14580.25
459.644	14580.25
459.75	14580.25
459.857	14580.25
459.964	14580.25
460.07	14580.25
460.177	14580.25
460.283	14580.25
460.39	14580.25
460.496	14580.25
460.603	14580.25
460.71	14580.25
460.816	14580.25
460.923	14580.25
461.029	14580.25
461.136	14580.25
461.242	14580.25
461.349	14580.25
461.455	14580.25
461.562	14580.25
461.668	14580.25
461.774	14580.25
461.881	14580.25
461.987	14580.25
462.094	14580.25
462.2	14580.25
462.307	14580.25
462.413	14580.25
462.519	14580.25
462.626	14580.25
462.732	14580.25
462.838	14580.25
462.945	14580.25
463.051	14580.25
463.157	14580.25
463.264	14580.25
463.37	14580.25
463.476	14580.25
463.583	14580.25
463.689	14580.25
463.795	14580.25
463.901	14580.25
464.008	14580.25
464.114	14580.25
464.22	14580.25
464.326	14580.25
464.433	14580.25
464.539	14580.25
464.645	14580.25
464.751	14580.25
464.857	14580.25
464.963	14580.25
465.07	14580.25
465.176	14580.25
465.282	14580.25
465.388	14580.25
465.494	14580.25
465.6	14580.25
465.706	14580.25
465.812	14580.25
465.918	14580.25
466.024	14580.25
466.131	14414.25
466.237	13990.25
466.343	13895.25
466.449	13532.25
466.555	13549.25
466.661	13222.25
466.767	13093.25
466.873	12967.25
466.979	13052.25
467.085	12762.25
467.191	13080.25
467.296	13048.25
467.402	12976.25
467.508	12829.25
467.614	12848.25
467.72	12377.25
467.826	12202.25
467.932	12122.25
468.038	11998.25
468.144	11791.25
468.25	11852.25
468.355	11826.25
468.461	11759.25
468.567	11676.25
468.673	11618.25
468.779	11688.25
468.885	11519.25
468.99	11689.25
469.096	11626.25
469.202	11815.25
469.308	11810.25
469.413	12078.25
469.519	12192.25
469.625	12159.25
469.731	12274.25
469.836	12342.25
469.942	12492.25
470.048	12313.25
470.153	12409.25
470.259	12442.25
470.365	12539.25
470.47	12506.25
470.576	12201.25
470.682	12173.25
470.787	11836.25
470.893	11629.25
470.999	11648.25
471.104	11539.25
471.21	11230.25
471.315	10949.25
471.421	11036.25
471.527	11150.25
471.632	10863.25
471.738	10602.25
471.843	10520.25
471.949	10534.25
472.054	10491.25
472.16	10422.25
472.265	10246.25
472.371	10067.25
472.476	10094.25
472.582	10031.25
472.687	9906.25
472.793	9937.25
472.898	9815.25
473.003	9787.25
473.109	9643.25
473.214	9573.25
473.32	9606.25
473.425	9644.25
473.53	9759.25
473.636	9540.25
473.741	9548.25
473.847	9633.25
473.952	9560.25
474.057	9536.25
474.163	9635.25
474.268	9586.25
474.373	9527.25
474.478	9433.25
474.584	9562.25
474.689	9569.25
474.794	9623.25
474.9	9892.25
475.005	9526.25
475.11	9687.25
475.215	9626.25
475.321	9636.25
475.426	9955.25
475.531	9641.25
475.636	9636.25
475.741	9698.25
475.846	9979.25
475.952	10136.25
476.057	9824.25
476.162	9873.25
476.267	10006.25
476.372	10178.25
476.477	9732.25
476.582	9961.25
476.687	9968.25
476.793	10186.25
476.898	10059.25
477.003	10271.25
477.108	10304.25
477.213	10394.25
477.318	10693.25
477.423	10743.25
477.528	10968.25
477.633	11077.25
477.738	11257.25
477.843	11248.25
477.948	11475.25
478.053	11566.25
478.158	11524.25
478.263	11731.25
478.368	11873.25
478.473	11964.25
478.578	12126.25
478.682	12246.25
478.787	12267.25
478.892	12242.25
478.997	12333.25
479.102	12107.25
479.207	12135.25
479.312	12417.25
479.417	12299.25
479.521	12218.25
479.626	12568.25
479.731	12525.25
479.836	12703.25
479.941	13154.25
480.045	13531.25
480.15	13565.25
480.255	13679.25
480.36	13718.25
480.465	13596.25
480.569	13615.25
480.674	13095.25
480.779	12732.25
480.883	12813.25
480.988	12759.25
481.093	12643.25
481.197	12358.25
481.302	12534.25
481.407	12404.25
481.511	14350.25
481.616	12463.25
481.721	12322.25
481.825	12418.25
481.93	12320.25
482.035	12481.25
482.139	12541.25
482.244	12347.25
482.348	12579.25
482.453	12650.25
482.557	12560.25
482.662	12648.25
482.767	12742.25
482.871	12731.25
482.976	12845.25
483.08	13022.25
483.185	13146.25
483.289	13201.25
483.394	13154.25
483.498	13251.25
483.603	13211.25
483.707	13584.25
483.811	13553.25
483.916	13813.25
484.02	13652.25
484.125	14122.25
484.229	13955.25
484.333	14326.25
484.438	14265.25
484.542	14446.25
484.647	14531.25
484.751	14580.25
484.855	14580.25
484.96	14580.25
485.064	14580.25
485.168	14580.25
485.273	14580.25
485.377	14580.25
485.481	14580.25
485.585	14580.25
485.69	14580.25
485.794	14580.25
485.898	14580.25
486.002	14580.25
486.107	14580.25
486.211	14580.25
486.315	14580.25
486.419	14580.25
486.524	14580.25
486.628	14580.25
486.732	14580.25
486.836	14580.25
486.94	14580.25
487.044	14580.25
487.148	14580.25
487.253	14580.25
487.357	14580.25
487.461	14580.25
487.565	14580.25
487.669	14580.25
487.773	14580.25
487.877	14580.25
487.981	14580.25
488.085	14580.25
488.189	14580.25
488.293	14580.25
488.397	14580.25
488.501	14580.25
488.605	14580.25
488.709	14580.25
488.813	14580.25
488.917	14580.25
489.021	14580.25
489.125	14580.25
489.229	14580.25
489.333	14580.25
489.437	14580.25
489.541	14580.25
489.645	14580.25
489.749	14580.25
489.853	14580.25
489.956	14580.25
490.06	14580.25
490.164	14580.25
490.268	14580.25
490.372	14580.25
490.476	14580.25
490.579	14580.25
490.683	14580.25
490.787	14580.25
490.891	14580.25
490.995	14580.25
491.098	14580.25
491.202	14580.25
491.306	14580.25
491.41	14580.25
491.513	14580.25
491.617	14580.25
491.721	14580.25
491.824	14580.25
491.928	14580.25
492.032	14580.25
492.136	14580.25
492.239	14580.25
492.343	14580.25
492.446	14580.25
492.55	14580.25
492.654	14580.25
492.757	14580.25
492.861	14580.25
492.965	14580.25
493.068	14580.25
493.172	14580.25
493.275	14580.25
493.379	14580.25
493.482	14580.25
493.586	14580.25
493.689	14580.25
493.793	14580.25
493.896	14580.25
494	14580.25
494.103	14580.25
494.207	14580.25
494.31	14580.25
494.414	14580.25
494.517	14580.25
494.621	14580.25
494.724	14580.25
494.828	14580.25
494.931	14580.25
495.034	14580.25
495.138	14580.25
495.241	14580.25
495.345	14580.25
495.448	14580.25
495.551	14580.25
495.655	14580.25
495.758	14580.25
495.861	14580.25
495.965	14580.25
496.068	14580.25
496.171	14580.25
496.274	14580.25
496.378	14580.25
496.481	14580.25
496.584	14580.25
496.687	14580.25
496.791	14580.25
496.894	14580.25
496.997	14580.25
497.1	14580.25
497.204	14580.25
497.307	14580.25
497.41	14580.25
497.513	14580.25
497.616	14580.25
497.719	14580.25
497.823	14580.25
497.926	14580.25
498.029	14580.25
498.132	14580.25
498.235	14580.25
498.338	14580.25
498.441	14580.25
498.544	14580.25
498.647	14580.25
498.75	14580.25
498.853	14580.25
498.956	14580.25
499.059	14580.25
499.163	14580.25
499.266	14580.25
499.369	14580.25
499.471	14580.25
499.574	14580.25
499.677	14580.25
499.78	14580.25
499.883	14580.25
499.986	14580.25
500.089	14580.25
500.192	14580.25
500.295	14580.25
500.398	14580.25
500.501	14580.25
500.604	14580.25
500.707	14580.25
500.809	14580.25
500.912	14580.25
501.015	14580.25
501.118	14580.25
501.221	14580.25
501.324	14580.25
501.426	14580.25
501.529	14580.25
501.632	14580.25
501.735	14580.25
501.837	14580.25
501.94	14580.25
502.043	14580.25
502.146	14580.25
502.248	14580.25
502.351	14580.25
502.454	14580.25
502.557	14580.25
502.659	14580.25
502.762	14580.25
502.865	14580.25
502.967	14580.25
503.07	14580.25
503.173	14580.25
503.275	14580.25
503.378	14580.25
503.48	14580.25
503.583	14580.25
503.686	14580.25
503.788	14580.25
503.891	14580.25
503.993	14580.25
504.096	14580.25
504.198	14580.25
504.301	14580.25
504.403	14580.25
504.506	14580.25
504.608	14580.25
504.711	14466.25
504.813	14092.25
504.916	13823.25
505.018	13305.25
505.121	12896.25
505.223	12791.25
505.326	12630.25
505.428	12567.25
505.531	12294.25
505.633	12102.25
505.735	11851.25
505.838	11808.25
505.94	11679.25
506.042	11567.25
506.145	11356.25
506.247	11465.25
506.35	11284.25
506.452	11312.25
506.554	11267.25
506.656	11199.25
506.759	10965.25
506.861	11066.25
506.963	11007.25
507.066	11064.25
507.168	10976.25
507.27	10816.25
507.372	10694.25
507.475	10746.25
507.577	10764.25
507.679	10633.25
507.781	10394.25
507.883	10427.25
507.986	10515.25
508.088	10246.25
508.19	10248.25
508.292	10354.25
508.394	10249.25
508.496	10190.25
508.598	10122.25
508.701	10159.25
508.803	10052.25
508.905	10038.25
509.007	10097.25
509.109	10135.25
509.211	10050.25
509.313	10097.25
509.415	9837.25
509.517	9943.25
509.619	9906.25
509.721	10018.25
509.823	9854.25
509.925	10097.25
510.027	9860.25
510.129	9859.25
510.231	9934.25
510.333	9834.25
510.435	9722.25
510.537	9940.25
510.639	10065.25
510.741	9778.25
510.843	9863.25
510.945	9879.25
511.047	9947.25
511.148	9980.25
511.25	9871.25
511.352	10060.25
511.454	9769.25
511.556	9973.25
511.658	9894.25
511.76	9866.25
511.861	10074.25
511.963	9835.25
512.065	9756.25
512.167	9659.25
512.268	9980.25
512.37	9983.25
512.472	9937.25
512.574	9991.25
512.676	10057.25
512.777	9892.25
512.879	9906.25
512.981	9984.25
513.082	9949.25
513.184	10003.25
513.286	10750.25
513.387	10153.25
513.489	10229.25
513.591	10281.25
513.692	10294.25
513.794	10308.25
513.896	10027.25
513.997	10167.25
514.099	10288.25
514.2	10499.25
514.302	10547.25
514.404	10398.25
514.505	10479.25
514.607	10650.25
514.708	10618.25
514.81	10823.25
514.911	10770.25
515.013	10824.25
515.114	10943.25
515.216	10961.25
515.317	11224.25
515.419	11240.25
515.52	11528.25
515.622	11452.25
515.723	11604.25
515.825	12017.25
515.926	11885.25
516.027	11938.25
516.129	12287.25
516.23	12544.25
516.332	12634.25
516.433	12869.25
516.534	13189.25
516.636	13464.25
516.737	13661.25
516.838	14580.25
516.94	14580.25
517.041	14580.25
517.142	14580.25
517.244	14580.25
517.345	14580.25
517.446	14580.25
517.547	14580.25
517.649	14580.25
517.75	14580.25
517.851	14580.25
517.952	14580.25
518.054	14580.25
518.155	14580.25
518.256	14580.25
518.357	14562.25
518.458	14214.25
518.56	13944.25
518.661	13696.25
518.762	13522.25
518.863	13538.25
518.964	13291.25
519.065	12960.25
519.166	12706.25
519.268	12577.25
519.369	12864.25
519.47	12313.25
519.571	12409.25
519.672	12123.25
519.773	12087.25
519.874	12317.25
519.975	12123.25
520.076	12044.25
520.177	12108.25
520.278	12035.25
520.379	11949.25
520.48	11780.25
520.581	11734.25
520.682	11825.25
520.783	11649.25
520.884	11854.25
520.985	11598.25
521.086	11659.25
521.187	11690.25
521.288	11470.25
521.389	11587.25
521.489	11368.25
521.59	11431.25
521.691	11470.25
521.792	11397.25
521.893	11598.25
521.994	11640.25
522.095	11447.25
522.195	11469.25
522.296	11335.25
522.397	11316.25
522.498	11387.25
522.599	11411.25
522.699	11387.25
522.8	11323.25
522.901	11464.25
523.002	11287.25
523.102	11639.25
523.203	11459.25
523.304	11594.25
523.405	11417.25
523.505	11389.25
523.606	11383.25
523.707	11445.25
523.807	11435.25
523.908	11345.25
524.009	11542.25
524.109	11323.25
524.21	11355.25
524.31	11427.25
524.411	11575.25
524.512	11727.25
524.612	11482.25
524.713	11618.25
524.813	11440.25
524.914	11727.25
525.014	14580.25
525.115	11801.25
525.216	11405.25
525.316	11443.25
525.417	11526.25
525.517	11513.25
525.618	11414.25
525.718	11446.25
525.819	11606.25
525.919	11585.25
526.019	11412.25
526.12	11602.25
526.22	11351.25
526.321	11434.25
526.421	11514.25
526.522	11454.25
526.622	11446.25
526.722	11539.25
526.823	11575.25
526.923	11555.25
527.023	11600.25
527.124	11510.25
527.224	11595.25
527.324	11591.25
527.425	11559.25
527.525	11386.25
527.625	11466.25
527.726	11487.25
527.826	11602.25
527.926	11500.25
528.026	11592.25
528.127	11484.25
528.227	11560.25
528.327	11601.25
528.427	11567.25
528.528	11530.25
528.628	11632.25
528.728	11498.25
528.828	11466.25
528.928	11562.25
529.029	11364.25
529.129	11512.25
529.229	11366.25
529.329	11394.25
529.429	11641.25
529.529	11523.25
529.629	11472.25
529.729	11369.25
529.829	11665.25
529.93	11419.25
530.03	11472.25
530.13	11321.25
530.23	11373.25
530.33	11395.25
530.43	11456.25
530.53	11350.25
530.63	11410.25
530.73	11302.25
530.83	11202.25
530.93	11351.25
531.03	11393.25
531.13	11353.25
531.23	11331.25
531.33	11413.25
531.429	11548.25
531.529	11571.25
531.629	11372.25
531.729	11136.25
531.829	11208.25
531.929	11345.25
532.029	11450.25
532.129	11130.25
532.229	11280.25
532.328	11340.25
532.428	11124.25
532.528	10955.25
532.628	11099.25
532.728	11020.25
532.827	10885.25
532.927	11139.25
533.027	10814.25
533.127	10968.25
533.227	11017.25
533.326	10989.25
533.426	10763.25
533.526	10975.25
533.625	11004.25
533.725	11208.25
533.825	10675.25
533.924	10771.25
534.024	10518.25
534.124	10530.25
534.223	10713.25
534.323	11105.25
534.423	10551.25
534.522	10543.25
534.622	10390.25
534.722	10239.25
534.821	10226.25
534.921	10390.25
535.02	10087.25
535.12	10317.25
535.219	10326.25
535.319	10222.25
535.419	10168.25
535.518	10127.25
535.618	10134.25
535.717	10084.25
535.817	9795.25
535.916	9744.25
536.016	9931.25
536.115	9704.25
536.215	9656.25
536.314	9440.25
536.413	9516.25
536.513	9750.25
536.612	9549.25
536.712	9482.25
536.811	9426.25
536.91	9351.25
537.01	9340.25
537.109	9358.25
537.209	9357.25
537.308	9146.25
537.407	9270.25
537.507	9294.25
537.606	9165.25
537.705	9328.25
537.805	9160.25
537.904	9151.25
538.003	8958.25
538.102	9277.25
538.202	9107.25
538.301	9114.25
538.4	9051.25
538.499	9121.25
538.599	8969.25
538.698	9144.25
538.797	8983.25
538.896	9057.25
538.995	8848.25
539.095	8870.25
539.194	8946.25
539.293	8723.25
539.392	8625.25
539.491	8670.25
539.59	8706.25
539.689	8814.25
539.789	8739.25
539.888	8497.25
539.987	8475.25
540.086	8506.25
540.185	8485.25
540.284	8568.25
540.383	8472.25
540.482	8439.25
540.581	8463.25
540.68	8455.25
540.779	8436.25
540.878	8380.25
540.977	8428.25
541.076	8347.25
541.175	8351.25
541.274	8676.25
541.373	8435.25
541.472	8366.25
541.571	8111.25
541.67	9740.25
541.769	8362.25
541.868	8215.25
541.966	8277.25
542.065	8155.25
542.164	8015.25
542.263	8024.25
542.362	8147.25
542.461	8104.25
542.56	8076.25
542.658	8176.25
542.757	8087.25
542.856	8107.25
542.955	8105.25
543.054	8005.25
543.152	8238.25
543.251	8196.25
543.35	8266.25
543.449	8099.25
543.547	7950.25
543.646	8073.25
543.745	8091.25
543.843	8079.25
543.942	8095.25
544.041	8042.25
544.14	8096.25
544.238	7959.25
544.337	8344.25
544.436	8170.25
544.534	8391.25
544.633	8147.25
544.731	8116.25
544.83	8242.25
544.929	8221.25
545.027	8148.25
545.126	8250.25
545.224	8496.25
545.323	8371.25
545.421	8387.25
545.52	8420.25
545.619	8288.25
545.717	8162.25
545.816	8280.25
545.914	8290.25
546.013	8279.25
546.111	8500.25
546.209	8234.25
546.308	8209.25
546.406	8010.25
546.505	8337.25
546.603	8162.25
546.702	8050.25
546.8	8202.25
546.899	8143.25
546.997	8039.25
547.095	8215.25
547.194	8172.25
547.292	8189.25
547.39	8219.25
547.489	8233.25
547.587	8427.25
547.685	8151.25
547.784	8649.25
547.882	8247.25
547.98	8256.25
548.079	8391.25
548.177	8204.25
548.275	8240.25
548.373	8436.25
548.472	8179.25
548.57	8137.25
548.668	8371.25
548.766	8221.25
548.864	8390.25
548.963	8157.25
549.061	8498.25
549.159	8230.25
549.257	8441.25
549.355	8489.25
549.454	8435.25
549.552	8519.25
549.65	8522.25
549.748	8460.25
549.846	8292.25
549.944	8282.25
550.042	8254.25
550.14	8209.25
550.238	8083.25
550.336	8094.25
550.434	7935.25
550.532	8025.25
550.631	8225.25
550.729	8003.25
550.827	8112.25
550.925	8097.25
551.023	8042.25
551.121	8083.25
551.218	8063.25
551.316	7999.25
551.414	8160.25
551.512	8147.25
551.61	8297.25
551.708	8315.25
551.806	8318.25
551.904	8464.25
552.002	8370.25
552.1	8530.25
552.198	8574.25
552.296	8960.25
552.393	8860.25
552.491	9219.25
552.589	9148.25
552.687	9202.25
552.785	9260.25
552.882	9475.25
552.98	9486.25
553.078	9503.25
553.176	9574.25
553.274	9410.25
553.371	9341.25
553.469	9390.25
553.567	9222.25
553.665	9060.25
553.762	9563.25
553.86	9126.25
553.958	8807.25
554.055	8622.25
554.153	8805.25
554.251	8621.25
554.348	8478.25
554.446	8446.25
554.544	8312.25
554.641	8594.25
554.739	8129.25
554.837	8288.25
554.934	8224.25
555.032	8083.25
555.129	7942.25
555.227	8285.25
555.324	11564.25
555.422	8154.25
555.519	7827.25
555.617	7696.25
555.715	7584.25
555.812	8071.25
555.91	7569.25
556.007	7575.25
556.105	7520.25
556.202	7569.25
556.299	7492.25
556.397	7572.25
556.494	7462.25
556.592	7498.25
556.689	7517.25
556.787	7477.25
556.884	7319.25
556.981	7405.25
557.079	7324.25
557.176	7348.25
557.273	7463.25
557.371	7507.25
557.468	7262.25
557.566	7416.25
557.663	7401.25
557.76	7420.25
557.857	7334.25
557.955	7408.25
558.052	7415.25
558.149	7451.25
558.247	7577.25
558.344	7376.25
558.441	7389.25
558.538	7332.25
558.636	7431.25
558.733	7367.25
558.83	7422.25
558.927	7437.25
559.024	7283.25
559.122	7249.25
559.219	7353.25
559.316	7464.25
559.413	7600.25
559.51	7195.25
559.607	7413.25
559.704	7503.25
559.801	7498.25
559.899	7573.25
559.996	7712.25
560.093	7494.25
560.19	7441.25
560.287	7550.25
560.384	7569.25
560.481	7683.25
560.578	7491.25
560.675	7484.25
560.772	7690.25
560.869	7626.25
560.966	7636.25
561.063	7565.25
561.16	7799.25
561.257	7618.25
561.354	7552.25
561.451	7648.25
561.548	7643.25
561.645	7867.25
561.742	7665.25
561.838	7643.25
561.935	7663.25
562.032	7711.25
562.129	7814.25
562.226	7705.25
562.323	7771.25
562.42	7872.25
562.516	7838.25
562.613	7855.25
562.71	7901.25
562.807	8780.25
562.904	7974.25
563	7988.25
563.097	8086.25
563.194	8079.25
563.291	8058.25
563.387	8157.25
563.484	8115.25
563.581	8241.25
563.678	8204.25
563.774	8783.25
563.871	8423.25
563.968	8411.25
564.064	8496.25
564.161	8593.25
564.258	8635.25
564.354	8792.25
564.451	8936.25
564.548	8886.25
564.644	8974.25
564.741	9044.25
564.837	9085.25
564.934	9386.25
565.031	9426.25
565.127	9470.25
565.224	9774.25
565.32	10178.25
565.417	10076.25
565.513	10315.25
565.61	10547.25
565.706	10973.25
565.803	11150.25
565.899	11453.25
565.996	11854.25
566.092	12143.25
566.189	12671.25
566.285	13165.25
566.382	13672.25
566.478	14398.25
566.574	14509.25
566.671	14526.25
566.767	14505.25
566.864	14440.25
566.96	14580.25
567.056	14580.25
567.153	14580.25
567.249	14580.25
567.345	14580.25
567.442	14580.25
567.538	14580.25
567.634	14580.25
567.731	14580.25
567.827	14580.25
567.923	14580.25
568.019	14580.25
568.116	14580.25
568.212	14580.25
568.308	14234.25
568.404	13914.25
568.501	13218.25
568.597	12767.25
568.693	12396.25
568.789	12817.25
568.885	11414.25
568.982	11251.25
569.078	10838.25
569.174	10548.25
569.27	10125.25
569.366	10126.25
569.462	9967.25
569.558	9771.25
569.655	9534.25
569.751	9396.25
569.847	9326.25
569.943	9359.25
570.039	9168.25
570.135	9537.25
570.231	9152.25
570.327	9263.25
570.423	9184.25
570.519	9211.25
570.615	9133.25
570.711	9200.25
570.807	9234.25
570.903	9078.25
570.999	9008.25
571.095	9045.25
571.191	8992.25
571.287	8679.25
571.383	8552.25
571.479	8438.25
571.574	8302.25
571.67	8065.25
571.766	8342.25
571.862	7900.25
571.958	7895.25
572.054	7886.25
572.15	7611.25
572.246	7540.25
572.341	7657.25
572.437	7599.25
572.533	7594.25
572.629	7411.25
572.725	7447.25
572.82	7372.25
572.916	7420.25
573.012	7358.25
573.108	7407.25
573.203	7198.25
573.299	7146.25
573.395	7055.25
573.49	6944.25
573.586	6939.25
573.682	7110.25
573.778	7188.25
573.873	6871.25
573.969	6941.25
574.065	6888.25
574.16	6976.25
574.256	6990.25
574.351	7015.25
574.447	6863.25
574.543	6970.25
574.638	7073.25
574.734	6927.25
574.829	7111.25
574.925	6811.25
575.02	6718.25
575.116	6635.25
575.212	6765.25
575.307	6688.25
575.403	6507.25
575.498	6647.25
575.594	6518.25
575.689	6601.25
575.784	6549.25
575.88	6533.25
575.975	6498.25
576.071	6279.25
576.166	6312.25
576.262	6334.25
576.357	6248.25
576.452	6538.25
576.548	6380.25
576.643	6129.25
576.739	6166.25
576.834	6265.25
576.929	6098.25
577.025	6413.25
577.12	6146.25
577.215	5951.25
577.311	6110.25
577.406	6306.25
577.501	6053.25
577.597	5844.25
577.692	6067.25
577.787	6073.25
577.882	5817.25
577.978	5934.25
578.073	5874.25
578.168	5721.25
578.263	5707.25
578.358	5788.25
578.454	5711.25
578.549	5530.25
578.644	5593.25
578.739	5690.25
578.834	5608.25
578.929	5587.25
579.025	5542.25
579.12	5574.25
579.215	5777.25
579.31	5681.25
579.405	5356.25
579.5	5475.25
579.595	5452.25
579.69	5317.25
579.785	5338.25
579.88	5469.25
579.975	5381.25
580.07	5356.25
580.165	5347.25
580.26	5355.25
580.355	5280.25
580.45	5313.25
580.545	5228.25
580.64	5142.25
580.735	5174.25
580.83	5270.25
580.925	5034.25
581.02	5120.25
581.115	5164.25
581.21	4925.25
581.305	5054.25
581.4	5073.25
581.495	5038.25
581.589	4965.25
581.684	4873.25
581.779	5192.25
581.874	4999.25
581.969	4988.25
582.064	4867.25
582.158	5018.25
582.253	4828.25
582.348	4913.25
582.443	4845.25
582.537	4845.25
582.632	5011.25
582.727	4819.25
582.822	4792.25
582.916	4761.25
583.011	4738.25
583.106	4768.25
583.201	4694.25
583.295	4841.25
583.39	4685.25
583.485	4573.25
583.579	6718.25
583.674	4778.25
583.769	4836.25
583.863	4688.25
583.958	4630.25
584.052	4605.25
584.147	4510.25
584.242	4480.25
584.336	4521.25
584.431	4752.25
584.525	4517.25
584.62	4718.25
584.714	4639.25
584.809	4532.25
584.903	4585.25
584.998	4580.25
585.092	4412.25
585.187	4561.25
585.281	4443.25
585.376	4481.25
585.47	4526.25
585.565	4393.25
585.659	4296.25
585.754	4452.25
585.848	4423.25
585.942	4330.25
586.037	4434.25
586.131	6942.25
586.226	4440.25
586.32	4471.25
586.414	4258.25
586.509	4500.25
586.603	4382.25
586.697	4330.25
586.792	4227.25
586.886	4297.25
586.98	4486.25
587.075	4308.25
587.169	4287.25
587.263	4554.25
587.357	4319.25
587.452	4248.25
587.546	4367.25
587.64	4301.25
587.734	4263.25
587.829	4334.25
587.923	4357.25
588.017	4318.25
588.111	4371.25
588.205	4615.25
588.3	4506.25
588.394	4567.25
588.488	4766.25
588.582	5256.25
588.676	6047.25
588.77	9875.25
588.864	14580.25
588.958	14580.25
589.052	14580.25
589.147	9363.25
589.241	6944.25
589.335	7119.25
589.429	13541.25
589.523	14580.25
589.617	13527.25
589.711	8568.25
589.805	6187.25
589.899	5307.25
589.993	4793.25
590.087	4511.25
590.181	4452.25
590.275	4501.25
590.369	4383.25
590.462	4206.25
590.556	4286.25
590.65	4266.25
590.744	4219.25
590.838	4274.25
590.932	4289.25
591.026	4254.25
591.12	4481.25
591.214	4262.25
591.307	4363.25
591.401	4276.25
591.495	4452.25
591.589	4350.25
591.683	4426.25
591.777	4517.25
591.87	4947.25
591.964	4583.25
592.058	4460.25
592.152	4581.25
592.245	4625.25
592.339	4720.25
592.433	4895.25
592.527	4923.25
592.62	4894.25
592.714	5011.25
592.808	5237.25
592.901	5139.25
592.995	5106.25
593.089	5523.25
593.182	5213.25
593.276	5233.25
593.37	5154.25
593.463	5086.25
593.557	5272.25
593.65	5230.25
593.744	5266.25
593.837	5394.25
593.931	5324.25
594.025	9593.25
594.118	5595.25
594.212	5148.25
594.305	5082.25
594.399	5091.25
594.492	5290.25
594.586	4895.25
594.679	4656.25
594.773	4601.25
594.866	4672.25
594.96	4509.25
595.053	4352.25
595.146	4320.25
595.24	4303.25
595.333	4267.25
595.427	4035.25
595.52	4077.25
595.614	4166.25
595.707	3995.25
595.8	3902.25
595.894	3868.25
595.987	3730.25
596.08	3657.25
596.174	3987.25
596.267	3737.25
596.36	3787.25
596.454	3738.25
596.547	3603.25
596.64	3516.25
596.733	3502.25
596.827	3499.25
596.92	3456.25
597.013	3415.25
597.106	3338.25
597.2	3392.25
597.293	3325.25
597.386	3519.25
597.479	3349.25
597.572	3339.25
597.666	3323.25
597.759	3213.25
597.852	3363.25
597.945	3299.25
598.038	3214.25
598.131	3216.25
598.224	3227.25
598.317	3297.25
598.411	3145.25
598.504	3195.25
598.597	3263.25
598.69	3137.25
598.783	3147.25
598.876	3196.25
598.969	3178.25
599.062	3078.25
599.155	3225.25
599.248	3119.25
599.341	3193.25
599.434	3120.25
599.527	3213.25
599.62	3057.25
599.713	3121.25
599.806	3228.25
599.899	3213.25
599.991	3032.25
600.084	3361.25
600.177	2998.25
600.27	3041.25
600.363	3289.25
600.456	3035.25
600.549	3073.25
600.642	2930.25
600.734	2979.25
600.827	3046.25
600.92	3146.25
601.013	2980.25
601.106	3048.25
601.199	2891.25
601.291	2976.25
601.384	2946.25
601.477	3194.25
601.57	3035.25
601.662	2865.25
601.755	2892.25
601.848	2998.25
601.94	2858.25
602.033	3056.25
602.126	2921.25
602.219	2858.25
602.311	3027.25
602.404	2855.25
602.497	2963.25
602.589	2919.25
602.682	2975.25
602.774	2963.25
602.867	2954.25
602.96	2911.25
603.052	2918.25
603.145	2835.25
603.237	2804.25
603.33	2897.25
603.422	3020.25
603.515	2827.25
603.608	2883.25
603.7	2876.25
603.793	2861.25
603.885	2905.25
603.978	2846.25
604.07	2803.25
604.163	2769.25
604.255	2974.25
604.347	2748.25
604.44	2742.25
604.532	2938.25
604.625	2817.25
604.717	2705.25
604.81	2820.25
604.902	2840.25
604.994	2734.25
605.087	2768.25
605.179	2794.25
605.271	2760.25
605.364	2735.25
605.456	2876.25
605.548	2762.25
605.641	2769.25
605.733	2700.25
605.825	2736.25
605.918	2710.25
606.01	2940.25
606.102	3146.25
606.194	2766.25
606.287	2886.25
606.379	2735.25
606.471	2707.25
606.563	2759.25
606.655	2769.25
606.748	2837.25
606.84	2692.25
606.932	2795.25
607.024	2714.25
607.116	2542.25
607.208	2687.25
607.301	2746.25
607.393	2699.25
607.485	2671.25
607.577	2767.25
607.669	2763.25
607.761	2775.25
607.853	3002.25
607.945	2614.25
608.037	2617.25
608.129	2684.25
608.221	2678.25
608.313	2612.25
608.405	2708.25
608.497	2731.25
608.589	2679.25
608.681	2697.25
608.773	2826.25
608.865	2632.25
608.957	2742.25
609.049	2691.25
609.141	2676.25
609.233	2567.25
609.325	2614.25
609.417	2690.25
609.509	2731.25
609.601	2765.25
609.693	2758.25
609.784	2581.25
609.876	2679.25
609.968	2711.25
610.06	5448.25
610.152	2927.25
610.244	2906.25
610.335	2599.25
610.427	2559.25
610.519	2618.25
610.611	2602.25
610.702	2559.25
610.794	2573.25
610.886	2706.25
610.978	2544.25
611.069	3116.25
611.161	2543.25
611.253	2541.25
611.344	2422.25
611.436	2310.25
611.528	2441.25
611.62	2263.25
611.711	2326.25
611.803	2290.25
611.894	2191.25
611.986	2209.25
612.078	2243.25
612.169	2155.25
612.261	2118.25
612.352	2093.25
612.444	1998.25
612.536	2122.25
612.627	2075.25
612.719	1947.25
612.81	1876.25
612.902	1915.25
612.993	1971.25
613.085	1846.25
613.176	1804.25
613.268	1832.25
613.359	1736.25
613.451	1728.25
613.542	1766.25
613.634	1666.25
613.725	1640.25
613.816	1784.25
613.908	1606.25
613.999	1540.25
614.091	1505.25
614.182	1511.25
614.273	1458.25
614.365	1394.25
614.456	1339.25
614.547	1330.25
614.639	1263.25
614.73	1329.25
614.821	1368.25
614.913	1199.25
615.004	1147.25
615.095	1108.25
615.187	1084.25
