Data from 35g_HRC06701__22__449.txt Node

Date: Thu Apr 18 02:31:54 CDT 2024
User: Estudiantes 2
Spectrometer: HR+C0670
Trigger mode: 4
Integration Time (sec): 1.000000E0
Scans to average: 1
Electric dark correction enabled: true
Nonlinearity correction enabled: false
Boxcar width: 0
XAxis mode: Wavelengths
Number of Pixels in Spectrum: 2048
>>>>>Begin Spectral Data<<<<<
407.81	-135.94
407.921	-135.94
408.032	-135.94
408.143	-110.94
408.254	-124.94
408.365	32.06
408.476	308.06
408.587	-42.94
408.699	-7.94
408.81	0.06
408.921	-57.94
409.032	-79.94
409.143	37.06
409.254	47.06
409.365	54.06
409.476	-19.94
409.587	38.06
409.698	64.06
409.809	103.06
409.92	29.06
410.031	-34.94
410.142	35.06
410.253	5.06
410.364	57.06
410.475	-32.94
410.585	105.06
410.696	150.06
410.807	76.06
410.918	84.06
411.029	181.06
411.14	112.06
411.251	85.06
411.362	193.06
411.472	129.06
411.583	126.06
411.694	209.06
411.805	118.06
411.916	82.06
412.026	188.06
412.137	161.06
412.248	113.06
412.359	121.06
412.47	150.06
412.58	100.06
412.691	164.06
412.802	148.06
412.912	104.06
413.023	107.06
413.134	154.06
413.245	226.06
413.355	82.06
413.466	105.06
413.577	156.06
413.687	221.06
413.798	73.06
413.909	237.06
414.019	99.06
414.13	140.06
414.24	125.06
414.351	151.06
414.462	262.06
414.572	174.06
414.683	191.06
414.793	107.06
414.904	480.06
415.014	172.06
415.125	63.06
415.235	153.06
415.346	280.06
415.456	233.06
415.567	125.06
415.677	195.06
415.788	191.06
415.898	137.06
416.009	138.06
416.119	190.06
416.23	90.06
416.34	73.06
416.45	157.06
416.561	906.06
416.671	271.06
416.782	119.06
416.892	104.06
417.002	148.06
417.113	172.06
417.223	150.06
417.333	102.06
417.444	133.06
417.554	174.06
417.664	172.06
417.775	92.06
417.885	164.06
417.995	138.06
418.106	271.06
418.216	222.06
418.326	152.06
418.436	82.06
418.547	158.06
418.657	63.06
418.767	210.06
418.877	131.06
418.987	130.06
419.098	123.06
419.208	147.06
419.318	251.06
419.428	156.06
419.538	147.06
419.648	215.06
419.759	194.06
419.869	216.06
419.979	191.06
420.089	172.06
420.199	112.06
420.309	194.06
420.419	206.06
420.529	107.06
420.639	653.06
420.749	252.06
420.859	208.06
420.969	178.06
421.079	447.06
421.189	245.06
421.299	232.06
421.409	165.06
421.519	257.06
421.629	229.06
421.739	160.06
421.849	114.06
421.959	97.06
422.069	203.06
422.179	158.06
422.289	98.06
422.399	128.06
422.509	277.06
422.619	3756.06
422.729	511.06
422.838	140.06
422.948	173.06
423.058	121.06
423.168	172.06
423.278	151.06
423.388	162.06
423.498	188.06
423.607	235.06
423.717	438.06
423.827	481.06
423.937	210.06
424.046	257.06
424.156	229.06
424.266	199.06
424.376	393.06
424.485	328.06
424.595	177.06
424.705	145.06
424.815	170.06
424.924	564.06
425.034	289.06
425.144	118.06
425.253	196.06
425.363	228.06
425.473	242.06
425.582	101.06
425.692	159.06
425.801	119.06
425.911	329.06
426.021	199.06
426.13	291.06
426.24	415.06
426.349	282.06
426.459	218.06
426.568	127.06
426.678	267.06
426.787	243.06
426.897	133.06
427.006	189.06
427.116	299.06
427.225	205.06
427.335	226.06
427.444	149.06
427.554	293.06
427.663	218.06
427.773	156.06
427.882	314.06
427.992	147.06
428.101	186.06
428.21	185.06
428.32	139.06
428.429	104.06
428.539	476.06
428.648	168.06
428.757	256.06
428.867	220.06
428.976	395.06
429.085	226.06
429.195	144.06
429.304	222.06
429.413	216.06
429.523	200.06
429.632	261.06
429.741	241.06
429.85	178.06
429.96	295.06
430.069	220.06
430.178	148.06
430.287	466.06
430.397	265.06
430.506	178.06
430.615	184.06
430.724	310.06
430.833	222.06
430.943	216.06
431.052	247.06
431.161	176.06
431.27	233.06
431.379	216.06
431.488	368.06
431.597	299.06
431.706	308.06
431.816	265.06
431.925	267.06
432.034	194.06
432.143	320.06
432.252	271.06
432.361	339.06
432.47	311.06
432.579	221.06
432.688	200.06
432.797	283.06
432.906	186.06
433.015	264.06
433.124	689.06
433.233	318.06
433.342	258.06
433.451	216.06
433.56	283.06
433.669	235.06
433.778	202.06
433.886	286.06
433.995	248.06
434.104	378.06
434.213	281.06
434.322	262.06
434.431	339.06
434.54	274.06
434.649	439.06
434.757	280.06
434.866	236.06
434.975	381.06
435.084	337.06
435.193	333.06
435.301	572.06
435.41	666.06
435.519	722.06
435.628	326.06
435.737	212.06
435.845	207.06
435.954	206.06
436.063	296.06
436.171	208.06
436.28	277.06
436.389	390.06
436.498	260.06
436.606	237.06
436.715	427.06
436.823	236.06
436.932	221.06
437.041	250.06
437.149	287.06
437.258	215.06
437.367	210.06
437.475	223.06
437.584	455.06
437.692	239.06
437.801	1882.06
437.91	416.06
438.018	216.06
438.127	187.06
438.235	259.06
438.344	190.06
438.452	277.06
438.561	198.06
438.669	181.06
438.778	155.06
438.886	221.06
438.995	152.06
439.103	187.06
439.212	204.06
439.32	164.06
439.428	178.06
439.537	230.06
439.645	271.06
439.754	225.06
439.862	231.06
439.97	279.06
440.079	200.06
440.187	165.06
440.295	356.06
440.404	195.06
440.512	235.06
440.62	303.06
440.729	267.06
440.837	277.06
440.945	936.06
441.054	353.06
441.162	178.06
441.27	293.06
441.378	229.06
441.487	215.06
441.595	577.06
441.703	389.06
441.811	267.06
441.92	212.06
442.028	222.06
442.136	254.06
442.244	265.06
442.352	288.06
442.461	179.06
442.569	156.06
442.677	214.06
442.785	287.06
442.893	195.06
443.001	195.06
443.109	215.06
443.217	167.06
443.325	148.06
443.434	742.06
443.542	440.06
443.65	221.06
443.758	393.06
443.866	263.06
443.974	514.06
444.082	308.06
444.19	279.06
444.298	241.06
444.406	279.06
444.514	260.06
444.622	301.06
444.73	288.06
444.838	309.06
444.946	301.06
445.054	230.06
445.161	264.06
445.269	184.06
445.377	246.06
445.485	291.06
445.593	229.06
445.701	430.06
445.809	302.06
445.917	289.06
446.025	184.06
446.132	362.06
446.24	374.06
446.348	276.06
446.456	186.06
446.564	205.06
446.671	231.06
446.779	209.06
446.887	208.06
446.995	259.06
447.102	236.06
447.21	297.06
447.318	276.06
447.426	184.06
447.533	460.06
447.641	1504.06
447.749	345.06
447.856	224.06
447.964	290.06
448.072	345.06
448.179	180.06
448.287	303.06
448.395	320.06
448.502	174.06
448.61	249.06
448.718	248.06
448.825	262.06
448.933	237.06
449.04	278.06
449.148	225.06
449.256	231.06
449.363	279.06
449.471	255.06
449.578	247.06
449.686	189.06
449.793	345.06
449.901	215.06
450.008	239.06
450.116	339.06
450.223	241.06
450.331	273.06
450.438	286.06
450.546	254.06
450.653	336.06
450.76	325.06
450.868	318.06
450.975	428.06
451.083	270.06
451.19	376.06
451.297	345.06
451.405	317.06
451.512	283.06
451.619	396.06
451.727	383.06
451.834	280.06
451.941	237.06
452.049	245.06
452.156	308.06
452.263	324.06
452.371	271.06
452.478	306.06
452.585	465.06
452.692	254.06
452.8	330.06
452.907	500.06
453.014	335.06
453.121	279.06
453.229	348.06
453.336	343.06
453.443	408.06
453.55	289.06
453.657	342.06
453.765	333.06
453.872	316.06
453.979	398.06
454.086	290.06
454.193	332.06
454.3	364.06
454.407	409.06
454.514	433.06
454.621	342.06
454.729	301.06
454.836	300.06
454.943	322.06
455.05	374.06
455.157	389.06
455.264	332.06
455.371	366.06
455.478	351.06
455.585	533.06
455.692	419.06
455.799	480.06
455.906	307.06
456.013	346.06
456.12	288.06
456.227	308.06
456.334	374.06
456.44	473.06
456.547	309.06
456.654	276.06
456.761	351.06
456.868	419.06
456.975	404.06
457.082	341.06
457.189	282.06
457.296	354.06
457.402	355.06
457.509	301.06
457.616	377.06
457.723	542.06
457.83	354.06
457.936	324.06
458.043	624.06
458.15	376.06
458.257	435.06
458.363	401.06
458.47	389.06
458.577	463.06
458.684	349.06
458.79	460.06
458.897	425.06
459.004	442.06
459.11	385.06
459.217	428.06
459.324	497.06
459.43	524.06
459.537	756.06
459.644	449.06
459.75	405.06
459.857	830.06
459.964	474.06
460.07	505.06
460.177	503.06
460.283	546.06
460.39	641.06
460.496	534.06
460.603	581.06
460.71	488.06
460.816	455.06
460.923	485.06
461.029	473.06
461.136	491.06
461.242	527.06
461.349	466.06
461.455	406.06
461.562	871.06
461.668	633.06
461.774	494.06
461.881	656.06
461.987	545.06
462.094	563.06
462.2	561.06
462.307	590.06
462.413	505.06
462.519	432.06
462.626	658.06
462.732	597.06
462.838	566.06
462.945	687.06
463.051	627.06
463.157	593.06
463.264	607.06
463.37	638.06
463.476	615.06
463.583	537.06
463.689	590.06
463.795	550.06
463.901	574.06
464.008	705.06
464.114	538.06
464.22	475.06
464.326	546.06
464.433	494.06
464.539	524.06
464.645	524.06
464.751	720.06
464.857	492.06
464.963	413.06
465.07	552.06
465.176	495.06
465.282	462.06
465.388	623.06
465.494	431.06
465.6	416.06
465.706	381.06
465.812	331.06
465.918	487.06
466.024	421.06
466.131	480.06
466.237	391.06
466.343	302.06
466.449	382.06
466.555	351.06
466.661	353.06
466.767	335.06
466.873	373.06
466.979	489.06
467.085	379.06
467.191	355.06
467.296	296.06
467.402	313.06
467.508	410.06
467.614	476.06
467.72	307.06
467.826	345.06
467.932	334.06
468.038	331.06
468.144	368.06
468.25	288.06
468.355	249.06
468.461	355.06
468.567	268.06
468.673	327.06
468.779	361.06
468.885	335.06
468.99	235.06
469.096	287.06
469.202	419.06
469.308	334.06
469.413	362.06
469.519	359.06
469.625	282.06
469.731	342.06
469.836	314.06
469.942	479.06
470.048	357.06
470.153	338.06
470.259	384.06
470.365	392.06
470.47	388.06
470.576	460.06
470.682	317.06
470.787	302.06
470.893	296.06
470.999	334.06
471.104	367.06
471.21	300.06
471.315	209.06
471.421	241.06
471.527	505.06
471.632	405.06
471.738	341.06
471.843	255.06
471.949	372.06
472.054	319.06
472.16	274.06
472.265	295.06
472.371	234.06
472.476	325.06
472.582	391.06
472.687	272.06
472.793	238.06
472.898	300.06
473.003	313.06
473.109	209.06
473.214	195.06
473.32	288.06
473.425	325.06
473.53	297.06
473.636	267.06
473.741	254.06
473.847	183.06
473.952	293.06
474.057	373.06
474.163	288.06
474.268	221.06
474.373	338.06
474.478	220.06
474.584	229.06
474.689	358.06
474.794	275.06
474.9	543.06
475.005	326.06
475.11	393.06
475.215	248.06
475.321	292.06
475.426	449.06
475.531	414.06
475.636	218.06
475.741	258.06
475.846	350.06
475.952	442.06
476.057	403.06
476.162	385.06
476.267	418.06
476.372	613.06
476.477	312.06
476.582	384.06
476.687	276.06
476.793	319.06
476.898	249.06
477.003	328.06
477.108	282.06
477.213	212.06
477.318	313.06
477.423	394.06
477.528	386.06
477.633	351.06
477.738	371.06
477.843	290.06
477.948	303.06
478.053	297.06
478.158	297.06
478.263	332.06
478.368	327.06
478.473	423.06
478.578	341.06
478.682	259.06
478.787	428.06
478.892	302.06
478.997	358.06
479.102	355.06
479.207	311.06
479.312	427.06
479.417	372.06
479.521	313.06
479.626	366.06
479.731	353.06
479.836	385.06
479.941	432.06
480.045	386.06
480.15	425.06
480.255	325.06
480.36	292.06
480.465	442.06
480.569	527.06
480.674	326.06
480.779	271.06
480.883	340.06
480.988	349.06
481.093	337.06
481.197	409.06
481.302	346.06
481.407	423.06
481.511	1641.06
481.616	445.06
481.721	336.06
481.825	592.06
481.93	350.06
482.035	307.06
482.139	399.06
482.244	393.06
482.348	353.06
482.453	332.06
482.557	466.06
482.662	361.06
482.767	336.06
482.871	359.06
482.976	317.06
483.08	357.06
483.185	517.06
483.289	355.06
483.394	372.06
483.498	410.06
483.603	322.06
483.707	381.06
483.811	414.06
483.916	472.06
484.02	354.06
484.125	452.06
484.229	464.06
484.333	461.06
484.438	350.06
484.542	407.06
484.647	345.06
484.751	367.06
484.855	348.06
484.96	374.06
485.064	372.06
485.168	379.06
485.273	398.06
485.377	369.06
485.481	614.06
485.585	421.06
485.69	352.06
485.794	446.06
485.898	509.06
486.002	386.06
486.107	382.06
486.211	446.06
486.315	470.06
486.419	454.06
486.524	448.06
486.628	412.06
486.732	407.06
486.836	421.06
486.94	522.06
487.044	414.06
487.148	384.06
487.253	405.06
487.357	459.06
487.461	580.06
487.565	397.06
487.669	440.06
487.773	430.06
487.877	514.06
487.981	530.06
488.085	456.06
488.189	452.06
488.293	588.06
488.397	866.06
488.501	493.06
488.605	410.06
488.709	440.06
488.813	406.06
488.917	364.06
489.021	461.06
489.125	712.06
489.229	441.06
489.333	612.06
489.437	505.06
489.541	469.06
489.645	458.06
489.749	454.06
489.853	454.06
489.956	440.06
490.06	537.06
490.164	423.06
490.268	439.06
490.372	519.06
490.476	415.06
490.579	408.06
490.683	1136.06
490.787	559.06
490.891	480.06
490.995	487.06
491.098	440.06
491.202	431.06
491.306	478.06
491.41	498.06
491.513	413.06
491.617	454.06
491.721	677.06
491.824	720.06
491.928	533.06
492.032	726.06
492.136	489.06
492.239	438.06
492.343	500.06
492.446	831.06
492.55	556.06
492.654	442.06
492.757	414.06
492.861	496.06
492.965	429.06
493.068	536.06
493.172	452.06
493.275	429.06
493.379	453.06
493.482	534.06
493.586	607.06
493.689	727.06
493.793	446.06
493.896	574.06
494	549.06
494.103	558.06
494.207	787.06
494.31	854.06
494.414	600.06
494.517	481.06
494.621	424.06
494.724	519.06
494.828	412.06
494.931	442.06
495.034	482.06
495.138	627.06
495.241	428.06
495.345	1285.06
495.448	665.06
495.551	456.06
495.655	432.06
495.758	466.06
495.861	453.06
495.965	448.06
496.068	501.06
496.171	533.06
496.274	444.06
496.378	490.06
496.481	487.06
496.584	485.06
496.687	525.06
496.791	508.06
496.894	513.06
496.997	477.06
497.1	551.06
497.204	529.06
497.307	431.06
497.41	683.06
497.513	719.06
497.616	501.06
497.719	546.06
497.823	515.06
497.926	495.06
498.029	540.06
498.132	549.06
498.235	550.06
498.338	530.06
498.441	737.06
498.544	559.06
498.647	595.06
498.75	769.06
498.853	777.06
498.956	666.06
499.059	892.06
499.163	728.06
499.266	696.06
499.369	748.06
499.471	780.06
499.574	910.06
499.677	850.06
499.78	921.06
499.883	906.06
499.986	1012.06
500.089	974.06
500.192	1004.06
500.295	1015.06
500.398	1047.06
500.501	987.06
500.604	896.06
500.707	876.06
500.809	952.06
500.912	960.06
501.015	937.06
501.118	841.06
501.221	854.06
501.324	745.06
501.426	722.06
501.529	674.06
501.632	663.06
501.735	589.06
501.837	543.06
501.94	542.06
502.043	548.06
502.146	600.06
502.248	547.06
502.351	525.06
502.454	584.06
502.557	456.06
502.659	514.06
502.762	456.06
502.865	413.06
502.967	423.06
503.07	451.06
503.173	512.06
503.275	459.06
503.378	449.06
503.48	479.06
503.583	552.06
503.686	496.06
503.788	740.06
503.891	455.06
503.993	671.06
504.096	473.06
504.198	422.06
504.301	398.06
504.403	440.06
504.506	401.06
504.608	409.06
504.711	399.06
504.813	484.06
504.916	467.06
505.018	433.06
505.121	420.06
505.223	410.06
505.326	356.06
505.428	550.06
505.531	391.06
505.633	377.06
505.735	386.06
505.838	344.06
505.94	364.06
506.042	306.06
506.145	333.06
506.247	390.06
506.35	331.06
506.452	445.06
506.554	404.06
506.656	421.06
506.759	334.06
506.861	372.06
506.963	373.06
507.066	407.06
507.168	433.06
507.27	332.06
507.372	339.06
507.475	316.06
507.577	332.06
507.679	336.06
507.781	328.06
507.883	342.06
507.986	329.06
508.088	399.06
508.19	314.06
508.292	354.06
508.394	357.06
508.496	253.06
508.598	264.06
508.701	299.06
508.803	354.06
508.905	252.06
509.007	341.06
509.109	473.06
509.211	361.06
509.313	275.06
509.415	324.06
509.517	341.06
509.619	282.06
509.721	363.06
509.823	295.06
509.925	469.06
510.027	279.06
510.129	385.06
510.231	297.06
510.333	273.06
510.435	333.06
510.537	377.06
510.639	386.06
510.741	336.06
510.843	390.06
510.945	346.06
511.047	398.06
511.148	333.06
511.25	251.06
511.352	314.06
511.454	300.06
511.556	377.06
511.658	290.06
511.76	412.06
511.861	426.06
511.963	285.06
512.065	349.06
512.167	269.06
512.268	498.06
512.37	377.06
512.472	300.06
512.574	352.06
512.676	405.06
512.777	327.06
512.879	287.06
512.981	262.06
513.082	370.06
513.184	295.06
513.286	806.06
513.387	434.06
513.489	463.06
513.591	371.06
513.692	451.06
513.794	374.06
513.896	274.06
513.997	291.06
514.099	272.06
514.2	368.06
514.302	350.06
514.404	360.06
514.505	279.06
514.607	357.06
514.708	337.06
514.81	375.06
514.911	377.06
515.013	432.06
515.114	388.06
515.216	337.06
515.317	344.06
515.419	377.06
515.52	385.06
515.622	349.06
515.723	400.06
515.825	464.06
515.926	370.06
516.027	381.06
516.129	346.06
516.23	389.06
516.332	398.06
516.433	392.06
516.534	439.06
516.636	356.06
516.737	361.06
516.838	1376.06
516.94	588.06
517.041	472.06
517.142	541.06
517.244	599.06
517.345	521.06
517.446	447.06
517.547	525.06
517.649	403.06
517.75	469.06
517.851	434.06
517.952	727.06
518.054	536.06
518.155	563.06
518.256	430.06
518.357	616.06
518.458	381.06
518.56	374.06
518.661	478.06
518.762	416.06
518.863	521.06
518.964	514.06
519.065	372.06
519.166	361.06
519.268	344.06
519.369	687.06
519.47	431.06
519.571	428.06
519.672	360.06
519.773	365.06
519.874	369.06
519.975	472.06
520.076	413.06
520.177	465.06
520.278	375.06
520.379	418.06
520.48	302.06
520.581	346.06
520.682	378.06
520.783	366.06
520.884	446.06
520.985	458.06
521.086	402.06
521.187	458.06
521.288	388.06
521.389	436.06
521.489	382.06
521.59	329.06
521.691	438.06
521.792	336.06
521.893	510.06
521.994	599.06
522.095	443.06
522.195	493.06
522.296	586.06
522.397	472.06
522.498	431.06
522.599	368.06
522.699	381.06
522.8	402.06
522.901	515.06
523.002	423.06
523.102	561.06
523.203	448.06
523.304	622.06
523.405	400.06
523.505	458.06
523.606	499.06
523.707	434.06
523.807	425.06
523.908	416.06
524.009	529.06
524.109	459.06
524.21	410.06
524.31	521.06
524.411	545.06
524.512	516.06
524.612	554.06
524.713	625.06
524.813	425.06
524.914	703.06
525.014	6442.06
525.115	980.06
525.216	405.06
525.316	459.06
525.417	440.06
525.517	409.06
525.618	414.06
525.718	364.06
525.819	374.06
525.919	512.06
526.019	389.06
526.12	490.06
526.22	385.06
526.321	353.06
526.421	341.06
526.522	380.06
526.622	319.06
526.722	348.06
526.823	422.06
526.923	441.06
527.023	492.06
527.124	364.06
527.224	519.06
527.324	319.06
527.425	414.06
527.525	390.06
527.625	392.06
527.726	381.06
527.826	509.06
527.926	416.06
528.026	428.06
528.127	389.06
528.227	399.06
528.327	498.06
528.427	402.06
528.528	496.06
528.628	460.06
528.728	432.06
528.828	541.06
528.928	487.06
529.029	367.06
529.129	456.06
529.229	453.06
529.329	455.06
529.429	499.06
529.529	561.06
529.629	467.06
529.729	386.06
529.829	628.06
529.93	445.06
530.03	445.06
530.13	426.06
530.23	454.06
530.33	488.06
530.43	445.06
530.53	456.06
530.63	453.06
530.73	354.06
530.83	364.06
530.93	338.06
531.03	363.06
531.13	485.06
531.23	333.06
531.33	423.06
531.429	532.06
531.529	559.06
531.629	426.06
531.729	348.06
531.829	352.06
531.929	338.06
532.029	405.06
532.129	413.06
532.229	429.06
532.328	362.06
532.428	420.06
532.528	353.06
532.628	361.06
532.728	421.06
532.827	303.06
532.927	416.06
533.027	429.06
533.127	544.06
533.227	421.06
533.326	428.06
533.426	406.06
533.526	474.06
533.625	570.06
533.725	690.06
533.825	471.06
533.924	322.06
534.024	338.06
534.124	310.06
534.223	417.06
534.323	819.06
534.423	457.06
534.522	429.06
534.622	326.06
534.722	381.06
534.821	389.06
534.921	325.06
535.02	375.06
535.12	428.06
535.219	516.06
535.319	491.06
535.419	470.06
535.518	374.06
535.618	405.06
535.717	497.06
535.817	316.06
535.916	272.06
536.016	476.06
536.115	316.06
536.215	340.06
536.314	338.06
536.413	276.06
536.513	330.06
536.612	339.06
536.712	274.06
536.811	308.06
536.91	310.06
537.01	295.06
537.109	376.06
537.209	325.06
537.308	320.06
537.407	348.06
537.507	346.06
537.606	336.06
537.705	364.06
537.805	345.06
537.904	301.06
538.003	362.06
538.102	421.06
538.202	373.06
538.301	438.06
538.4	400.06
538.499	375.06
538.599	431.06
538.698	606.06
538.797	326.06
538.896	469.06
538.995	373.06
539.095	358.06
539.194	569.06
539.293	373.06
539.392	374.06
539.491	368.06
539.59	394.06
539.689	446.06
539.789	440.06
539.888	273.06
539.987	245.06
540.086	302.06
540.185	403.06
540.284	390.06
540.383	359.06
540.482	334.06
540.581	309.06
540.68	348.06
540.779	435.06
540.878	367.06
540.977	368.06
541.076	361.06
541.175	453.06
541.274	596.06
541.373	469.06
541.472	456.06
541.571	313.06
541.67	1778.06
541.769	582.06
541.868	412.06
541.966	456.06
542.065	359.06
542.164	417.06
542.263	365.06
542.362	332.06
542.461	473.06
542.56	486.06
542.658	441.06
542.757	372.06
542.856	300.06
542.955	317.06
543.054	331.06
543.152	459.06
543.251	343.06
543.35	522.06
543.449	420.06
543.547	381.06
543.646	332.06
543.745	450.06
543.843	445.06
543.942	411.06
544.041	381.06
544.14	420.06
544.238	356.06
544.337	584.06
544.436	433.06
544.534	519.06
544.633	453.06
544.731	392.06
544.83	417.06
544.929	363.06
545.027	396.06
545.126	340.06
545.224	408.06
545.323	372.06
545.421	387.06
545.52	397.06
545.619	411.06
545.717	403.06
545.816	422.06
545.914	444.06
546.013	639.06
546.111	539.06
546.209	392.06
546.308	368.06
546.406	339.06
546.505	582.06
546.603	450.06
546.702	373.06
546.8	397.06
546.899	381.06
546.997	423.06
547.095	461.06
547.194	431.06
547.292	433.06
547.39	439.06
547.489	373.06
547.587	701.06
547.685	356.06
547.784	614.06
547.882	491.06
547.98	318.06
548.079	444.06
548.177	437.06
548.275	370.06
548.373	525.06
548.472	383.06
548.57	445.06
548.668	472.06
548.766	329.06
548.864	553.06
548.963	360.06
549.061	557.06
549.159	389.06
549.257	434.06
549.355	352.06
549.454	366.06
549.552	492.06
549.65	386.06
549.748	340.06
549.846	417.06
549.944	363.06
550.042	375.06
550.14	418.06
550.238	380.06
550.336	330.06
550.434	364.06
550.532	348.06
550.631	476.06
550.729	425.06
550.827	463.06
550.925	361.06
551.023	374.06
551.121	406.06
551.218	333.06
551.316	253.06
551.414	350.06
551.512	283.06
551.61	425.06
551.708	508.06
551.806	388.06
551.904	326.06
552.002	314.06
552.1	367.06
552.198	309.06
552.296	520.06
552.393	573.06
552.491	532.06
552.589	525.06
552.687	568.06
552.785	444.06
552.882	528.06
552.98	701.06
553.078	536.06
553.176	510.06
553.274	387.06
553.371	407.06
553.469	385.06
553.567	398.06
553.665	408.06
553.762	869.06
553.86	547.06
553.958	463.06
554.055	420.06
554.153	489.06
554.251	440.06
554.348	425.06
554.446	332.06
554.544	431.06
554.641	674.06
554.739	358.06
554.837	403.06
554.934	421.06
555.032	379.06
555.129	345.06
555.227	704.06
555.324	5120.06
555.422	811.06
555.519	422.06
555.617	401.06
555.715	303.06
555.812	720.06
555.91	338.06
556.007	388.06
556.105	380.06
556.202	435.06
556.299	308.06
556.397	352.06
556.494	376.06
556.592	325.06
556.689	412.06
556.787	360.06
556.884	304.06
556.981	333.06
557.079	343.06
557.176	437.06
557.273	369.06
557.371	445.06
557.468	387.06
557.566	359.06
557.663	294.06
557.76	421.06
557.857	311.06
557.955	392.06
558.052	475.06
558.149	477.06
558.247	501.06
558.344	372.06
558.441	348.06
558.538	334.06
558.636	352.06
558.733	411.06
558.83	384.06
558.927	355.06
559.024	392.06
559.122	283.06
559.219	360.06
559.316	439.06
559.413	459.06
559.51	310.06
559.607	354.06
559.704	429.06
559.801	423.06
559.899	394.06
559.996	624.06
560.093	411.06
560.19	305.06
560.287	475.06
560.384	505.06
560.481	327.06
560.578	374.06
560.675	331.06
560.772	416.06
560.869	366.06
560.966	504.06
561.063	374.06
561.16	417.06
561.257	419.06
561.354	335.06
561.451	308.06
561.548	452.06
561.645	565.06
561.742	341.06
561.838	408.06
561.935	381.06
562.032	359.06
562.129	380.06
562.226	373.06
562.323	317.06
562.42	402.06
562.516	373.06
562.613	321.06
562.71	349.06
562.807	1164.06
562.904	389.06
563	388.06
563.097	387.06
563.194	337.06
563.291	314.06
563.387	369.06
563.484	394.06
563.581	322.06
563.678	292.06
563.774	808.06
563.871	416.06
563.968	331.06
564.064	428.06
564.161	309.06
564.258	304.06
564.354	494.06
564.451	390.06
564.548	353.06
564.644	407.06
564.741	371.06
564.837	313.06
564.934	311.06
565.031	386.06
565.127	342.06
565.224	417.06
565.32	586.06
565.417	367.06
565.513	397.06
565.61	495.06
565.706	515.06
565.803	471.06
565.899	415.06
565.996	507.06
566.092	408.06
566.189	406.06
566.285	475.06
566.382	397.06
566.478	504.06
566.574	596.06
566.671	447.06
566.767	466.06
566.864	473.06
566.96	485.06
567.056	416.06
567.153	749.06
567.249	601.06
567.345	590.06
567.442	579.06
567.538	638.06
567.634	549.06
567.731	487.06
567.827	560.06
567.923	532.06
568.019	445.06
568.116	408.06
568.212	365.06
568.308	465.06
568.404	448.06
568.501	449.06
568.597	480.06
568.693	403.06
568.789	1106.06
568.885	351.06
568.982	397.06
569.078	385.06
569.174	419.06
569.27	293.06
569.366	454.06
569.462	399.06
569.558	309.06
569.655	381.06
569.751	355.06
569.847	289.06
569.943	305.06
570.039	335.06
570.135	712.06
570.231	344.06
570.327	562.06
570.423	408.06
570.519	361.06
570.615	310.06
570.711	395.06
570.807	370.06
570.903	276.06
570.999	405.06
571.095	390.06
571.191	310.06
571.287	407.06
571.383	359.06
571.479	384.06
571.574	479.06
571.67	316.06
571.766	503.06
571.862	336.06
571.958	318.06
572.054	414.06
572.15	242.06
572.246	293.06
572.341	394.06
572.437	316.06
572.533	390.06
572.629	317.06
572.725	250.06
572.82	319.06
572.916	361.06
573.012	304.06
573.108	414.06
573.203	287.06
573.299	235.06
573.395	223.06
573.49	263.06
573.586	253.06
573.682	297.06
573.778	511.06
573.873	271.06
573.969	185.06
574.065	319.06
574.16	284.06
574.256	264.06
574.351	364.06
574.447	240.06
574.543	258.06
574.638	357.06
574.734	352.06
574.829	491.06
574.925	345.06
575.02	329.06
575.116	257.06
575.212	302.06
575.307	467.06
575.403	311.06
575.498	322.06
575.594	325.06
575.689	370.06
575.784	335.06
575.88	322.06
575.975	380.06
576.071	267.06
576.166	223.06
576.262	301.06
576.357	218.06
576.452	430.06
576.548	344.06
576.643	237.06
576.739	301.06
576.834	311.06
576.929	304.06
577.025	968.06
577.12	289.06
577.215	248.06
577.311	266.06
577.406	348.06
577.501	508.06
577.597	156.06
577.692	398.06
577.787	410.06
577.882	238.06
577.978	260.06
578.073	241.06
578.168	221.06
578.263	220.06
578.358	205.06
578.454	213.06
578.549	191.06
578.644	184.06
578.739	353.06
578.834	197.06
578.929	202.06
579.025	272.06
579.12	284.06
579.215	458.06
579.31	445.06
579.405	275.06
579.5	298.06
579.595	239.06
579.69	207.06
579.785	189.06
579.88	218.06
579.975	281.06
580.07	249.06
580.165	222.06
580.26	374.06
580.355	242.06
580.45	239.06
580.545	231.06
580.64	270.06
580.735	321.06
580.83	322.06
580.925	271.06
581.02	190.06
581.115	182.06
581.21	189.06
581.305	199.06
581.4	257.06
581.495	228.06
581.589	257.06
581.684	168.06
581.779	285.06
581.874	284.06
581.969	255.06
582.064	170.06
582.158	239.06
582.253	191.06
582.348	232.06
582.443	305.06
582.537	192.06
582.632	432.06
582.727	277.06
582.822	215.06
582.916	173.06
583.011	230.06
583.106	266.06
583.201	178.06
583.295	253.06
583.39	210.06
583.485	196.06
583.579	2540.06
583.674	534.06
583.769	471.06
583.863	180.06
583.958	249.06
584.052	131.06
584.147	202.06
584.242	165.06
584.336	242.06
584.431	389.06
584.525	185.06
584.62	397.06
584.714	279.06
584.809	227.06
584.903	265.06
584.998	239.06
585.092	159.06
585.187	236.06
585.281	181.06
585.376	229.06
585.47	258.06
585.565	233.06
585.659	119.06
585.754	167.06
585.848	249.06
585.942	170.06
586.037	169.06
586.131	2678.06
586.226	419.06
586.32	281.06
586.414	175.06
586.509	312.06
586.603	243.06
586.697	209.06
586.792	186.06
586.886	143.06
586.98	259.06
587.075	214.06
587.169	126.06
587.263	426.06
587.357	282.06
587.452	144.06
587.546	288.06
587.64	184.06
587.734	216.06
587.829	229.06
587.923	166.06
588.017	232.06
588.111	182.06
588.205	262.06
588.3	196.06
588.394	122.06
588.488	135.06
588.582	222.06
588.676	272.06
588.77	400.06
588.864	876.06
588.958	727.06
589.052	468.06
589.147	421.06
589.241	358.06
589.335	272.06
589.429	584.06
589.523	658.06
589.617	493.06
589.711	369.06
589.805	293.06
589.899	321.06
589.993	226.06
590.087	134.06
590.181	142.06
590.275	216.06
590.369	160.06
590.462	176.06
590.556	106.06
590.65	126.06
590.744	211.06
590.838	140.06
590.932	160.06
591.026	266.06
591.12	358.06
591.214	176.06
591.307	209.06
591.401	205.06
591.495	217.06
591.589	157.06
591.683	195.06
591.777	238.06
591.87	538.06
591.964	261.06
592.058	161.06
592.152	252.06
592.245	229.06
592.339	296.06
592.433	323.06
592.527	239.06
592.62	190.06
592.714	220.06
592.808	316.06
592.901	268.06
592.995	133.06
593.089	421.06
593.182	309.06
593.276	191.06
593.37	171.06
593.463	181.06
593.557	197.06
593.65	160.06
593.744	212.06
593.837	292.06
593.931	166.06
594.025	3337.06
594.118	544.06
594.212	148.06
594.305	125.06
594.399	237.06
594.492	555.06
594.586	209.06
594.679	178.06
594.773	126.06
594.866	210.06
594.96	203.06
595.053	172.06
595.146	130.06
595.24	138.06
595.333	184.06
595.427	76.06
595.52	140.06
595.614	355.06
595.707	182.06
595.8	135.06
595.894	226.06
595.987	126.06
596.08	115.06
596.174	596.06
596.267	307.06
596.36	254.06
596.454	321.06
596.547	293.06
596.64	122.06
596.733	90.06
596.827	286.06
596.92	131.06
597.013	77.06
597.106	113.06
597.2	74.06
597.293	80.06
597.386	399.06
597.479	182.06
597.572	203.06
597.666	129.06
597.759	163.06
597.852	249.06
597.945	102.06
598.038	179.06
598.131	108.06
598.224	145.06
598.317	255.06
598.411	152.06
598.504	110.06
598.597	196.06
598.69	131.06
598.783	90.06
598.876	162.06
598.969	198.06
599.062	72.06
599.155	189.06
599.248	119.06
599.341	157.06
599.434	103.06
599.527	229.06
599.62	121.06
599.713	72.06
599.806	228.06
599.899	342.06
599.991	104.06
600.084	370.06
600.177	191.06
600.27	115.06
600.363	351.06
600.456	177.06
600.549	169.06
600.642	79.06
600.734	147.06
600.827	140.06
600.92	242.06
601.013	134.06
601.106	244.06
601.199	113.06
601.291	112.06
601.384	171.06
601.477	372.06
601.57	267.06
601.662	171.06
601.755	151.06
601.848	209.06
601.94	95.06
602.033	277.06
602.126	171.06
602.219	144.06
602.311	302.06
602.404	117.06
602.497	131.06
602.589	148.06
602.682	181.06
602.774	184.06
602.867	192.06
602.96	122.06
603.052	144.06
603.145	127.06
603.237	156.06
603.33	108.06
603.422	248.06
603.515	124.06
603.608	176.06
603.7	191.06
603.793	170.06
603.885	163.06
603.978	154.06
604.07	138.06
604.163	107.06
604.255	166.06
604.347	138.06
604.44	61.06
604.532	249.06
604.625	136.06
604.717	127.06
604.81	182.06
604.902	140.06
604.994	139.06
605.087	100.06
605.179	121.06
605.271	180.06
605.364	143.06
605.456	199.06
605.548	143.06
605.641	113.06
605.733	101.06
605.825	164.06
605.918	111.06
606.01	298.06
606.102	611.06
606.194	230.06
606.287	251.06
606.379	120.06
606.471	199.06
606.563	189.06
606.655	182.06
606.748	247.06
606.84	135.06
606.932	191.06
607.024	108.06
607.116	105.06
607.208	101.06
607.301	174.06
607.393	145.06
607.485	106.06
607.577	200.06
607.669	293.06
607.761	185.06
607.853	409.06
607.945	133.06
608.037	103.06
608.129	119.06
608.221	122.06
608.313	101.06
608.405	209.06
608.497	142.06
608.589	132.06
608.681	162.06
608.773	221.06
608.865	182.06
608.957	158.06
609.049	118.06
609.141	227.06
609.233	124.06
609.325	79.06
609.417	125.06
609.509	260.06
609.601	291.06
609.693	235.06
609.784	173.06
609.876	144.06
609.968	185.06
610.06	2487.06
610.152	423.06
610.244	437.06
610.335	191.06
610.427	161.06
610.519	156.06
610.611	188.06
610.702	171.06
610.794	152.06
610.886	229.06
610.978	214.06
611.069	639.06
611.161	201.06
611.253	246.06
611.344	121.06
611.436	93.06
611.528	251.06
611.62	101.06
611.711	119.06
611.803	115.06
611.894	159.06
611.986	122.06
612.078	165.06
612.169	183.06
612.261	105.06
612.352	65.06
612.444	140.06
612.536	262.06
612.627	129.06
612.719	90.06
612.81	82.06
612.902	55.06
612.993	138.06
613.085	132.06
613.176	32.06
613.268	89.06
613.359	116.06
613.451	77.06
613.542	132.06
613.634	120.06
613.725	135.06
613.816	221.06
613.908	111.06
613.999	95.06
614.091	31.06
614.182	1.06
614.273	147.06
614.365	32.06
614.456	9.06
614.547	86.06
614.639	20.06
614.73	50.06
614.821	168.06
614.913	-10.94
615.004	3.06
615.095	18.06
615.187	-5.94
